姓名
出生日期
记录日期,2026-03-21 22:06:12 +0000
分类,窦性心律
症状,
软件版本,1.90
设备,"Watch7,2"
采样率,512赫兹


导联,导联I
单位,µV

43.484
53.505
57.599
56.329
53.143
50.199
50.125
52.97
56.295
58.893
59.873
58.962
57.028
54.393
51.005
46.95
42.186
36.759
30.85
24.549
17.881
10.897
3.673
-3.719
-11.186
-18.648
-26.05
-33.341
-40.461
-47.357
-53.992
-60.342
-66.4
-72.173
-77.636
-82.732
-87.427
-91.71
-95.619
-99.262
-102.745
-106.148
-109.581
-113.18
-117.018
-121.101
-125.306
-129.352
-133.014
-136.144
-138.588
-140.184
-140.826
-140.522
-139.476
-138.068
-136.6
-135.331
-134.815
-135.876
-139.243
-145.148
-152.437
-159.216
-164.117
-166.697
-168.797
-172.769
-179.786
-190.169
-200.89
-207.294
-204.672
-186.615
-149.05
-91.392
-15.334
71.93
161.476
247.246
324.66
393.389
455.474
510.286
556.651
593.148
618.955
635.843
645.139
644.767
628.318
587.235
515.604
414.496
293.781
168.677
54.32
-38.522
-105.539
-147.544
-167.555
-169.289
-157.731
-138.995
-120.463
-109.18
-107.797
-114.705
-125.003
-132.62
-135.223
-133.771
-130.961
-130.292
-132.753
-137.41
-143.039
-147.944
-151.257
-152.869
-152.597
-150.587
-147.189
-142.659
-137.3
-131.494
-125.557
-119.853
-114.805
-110.62
-107.335
-104.925
-103.264
-102.255
-101.899
-102.053
-102.45
-102.94
-103.321
-103.705
-104.692
-106.161
-107.476
-107.702
-105.093
-99.636
-93.09
-87.158
-84.241
-84.617
-85.945
-86.424
-84.171
-78.773
-72.003
-64.999
-58.512
-52.853
-47.367
-41.766
-36.113
-30.4
-24.748
-19.204
-13.696
-8.213
-2.779
2.614
7.973
13.303
18.601
23.865
29.099
34.316
39.541
44.801
50.101
55.438
60.804
66.177
71.538
76.873
82.161
87.388
92.55
97.641
102.657
107.6
112.454
117.205
121.844
126.349
130.71
134.926
139.004
142.968
146.853
150.67
154.417
158.084
161.632
165.022
168.203
171.107
173.68
175.879
177.656
178.988
179.846
180.189
179.97
179.129
177.589
175.308
172.263
168.44
163.864
158.572
152.619
146.095
139.081
131.639
123.834
115.709
107.308
98.689
89.917
81.06
72.205
63.421
54.765
46.292
38.03
29.995
22.188
14.58
7.148
-0.112
-7.203
-14.113
-20.827
-27.339
-33.641
-39.724
-45.59
-51.24
-56.673
-61.891
-66.889
-71.652
-76.163
-80.393
-84.316
-87.916
-91.184
-94.115
-96.712
-98.978
-100.918
-102.547
-103.874
-104.908
-105.661
-106.138
-106.351
-106.313
-106.039
-105.548
-104.856
-103.981
-102.938
-101.743
-100.41
-98.953
-97.382
-95.708
-93.942
-92.093
-90.173
-88.194
-86.166
-84.101
-82.009
-79.9
-77.783
-75.667
-73.561
-71.47
-69.4
-67.359
-65.35
-63.379
-61.45
-59.565
-57.729
-55.944
-54.212
-52.535
-50.915
-49.353
-47.85
-46.407
-45.024
-43.702
-42.441
-41.241
-40.103
-39.026
-38.011
-37.056
-36.161
-35.325
-34.547
-33.826
-33.159
-32.545
-31.983
-31.468
-31.001
-30.578
-30.197
-29.856
-29.553
-29.284
-29.048
-28.843
-28.665
-28.512
-28.382
-28.271
-28.178
-28.099
-28.031
-27.972
-27.917
-27.865
-27.811
-27.753
-27.687
-27.61
-27.518
-27.41
-27.281
-27.129
-26.952
-26.746
-26.51
-26.242
-25.94
-25.601
-25.225
-24.811
-24.358
-23.865
-23.331
-22.756
-22.139
-21.482
-20.783
-20.044
-19.264
-18.445
-17.587
-16.692
-15.76
-14.794
-13.796
-12.767
-11.71
-10.627
-9.522
-8.396
-7.253
-6.095
-4.927
-3.751
-2.57
-1.388
-0.208
0.968
2.135
3.291
4.434
5.56
6.667
7.751
8.812
9.845
10.849
11.821
12.759
13.661
14.525
15.349
16.131
16.87
17.564
18.211
18.81
19.361
19.862
20.313
20.713
21.061
21.357
21.602
21.794
21.933
22.02
22.055
22.036
21.965
21.84
21.662
21.43
21.144
20.803
20.406
19.954
19.445
18.879
18.255
17.572
16.83
16.028
15.165
14.24
13.252
12.202
11.088
9.909
8.666
7.358
5.985
4.546
3.042
1.472
-0.163
-1.861
-3.623
-5.447
-7.33
-9.271
-11.267
-13.315
-15.411
-17.551
-19.731
-21.946
-24.19
-26.458
-28.743
-31.039
-33.338
-35.633
-37.916
-40.18
-42.414
-44.612
-46.764
-48.86
-50.892
-52.852
-54.73
-56.518
-58.208
-59.791
-61.258
-62.602
-63.814
-64.889
-65.818
-66.596
-67.216
-67.674
-67.967
-68.094
-68.051
-67.836
-67.447
-66.881
-66.14
-65.227
-64.143
-62.894
-61.485
-59.922
-58.215
-56.379
-54.426
-52.369
-50.222
-47.997
-45.714
-43.396
-41.072
-38.772
-36.52
-34.334
-32.225
-30.21
-28.31
-26.552
-24.954
-23.513
-22.238
-21.169
-20.368
-19.9
-19.789
-19.987
-20.436
-21.136
-22.059
-23.13
-24.213
-25.111
-25.724
-26.129
-26.433
-26.683
-26.982
-27.469
-28.383
-30.14
-32.99
-36.937
-41.949
-47.949
-54.743
-62.129
-69.738
-76.936
-83.284
-88.506
-92.32
-94.641
-95.523
-95.048
-93.547
-91.541
-89.396
-87.467
-86.167
-85.691
-86.136
-87.473
-89.363
-91.435
-93.443
-95.097
-96.114
-96.331
-95.604
-93.987
-91.894
-89.724
-87.839
-86.699
-86.629
-87.893
-90.907
-95.976
-103.07
-112.207
-122.848
-133.499
-142.822
-149.531
-153.097
-154.771
-155.278
-153.426
-145.702
-125.638
-87.378
-29.147
46.415
132.264
220.499
306.134
387.062
463.064
533.474
595.859
647.049
685.437
712.367
729.874
738.703
735.771
713.498
664.812
586.472
481.926
361.819
239.649
128.276
36.074
-33.115
-78.788
-103.297
-108.53
-98.139
-78.247
-54.753
-34.91
-24.132
-23.017
-30.115
-41.824
-52.994
-60.664
-63.678
-61.693
-57.152
-53.069
-50.902
-51.91
-55.467
-59.464
-62.969
-65.329
-66.374
-66.822
-66.906
-66.61
-66.052
-65.176
-63.99
-62.643
-61.335
-60.224
-59.354
-58.836
-58.34
-57.424
-56.4
-55.332
-54.811
-55.987
-58.127
-60.125
-60.85
-58.143
-52.271
-45.327
-38.741
-34.773
-34.066
-34.493
-34.79
-33.686
-30.242
-25.743
-20.993
-16.227
-11.96
-7.77
-3.299
1.324
6.148
11.107
16.074
21.082
26.159
31.286
36.472
41.725
47.036
52.399
57.802
63.231
68.674
74.127
79.586
85.048
90.519
96.007
101.522
107.061
112.608
118.145
123.648
129.098
134.485
139.791
145.004
150.107
155.083
159.922
164.626
169.2
173.643
177.954
182.134
186.192
190.157
194.053
197.894
201.685
205.407
209.032
212.528
215.865
219.004
221.899
224.484
226.681
228.429
229.671
230.358
230.43
229.797
228.373
226.086
222.886
218.761
213.722
207.791
200.991
193.362
184.958
175.856
166.152
155.923
145.228
134.112
122.644
110.935
99.108
87.296
75.598
64.083
52.805
41.808
31.139
20.834
10.911
1.369
-7.8
-16.585
-24.949
-32.829
-40.2
-47.069
-53.472
-59.47
-65.093
-70.352
-75.261
-79.83
-84.072
-87.998
-91.604
-94.871
-97.788
-100.362
-102.624
-104.632
-106.417
-107.987
-109.336
-110.436
-111.279
-111.87
-112.211
-112.301
-112.146
-111.751
-111.141
-110.35
-109.406
-108.325
-107.115
-105.77
-104.298
-102.717
-101.051
-99.334
-97.591
-95.842
-94.113
-92.428
-90.809
-89.272
-87.828
-86.475
-85.218
-84.065
-83.022
-82.098
-81.3
-80.628
-80.081
-79.659
-79.358
-79.176
-79.105
-79.14
-79.271
-79.494
-79.803
-80.194
-80.662
-81.2
-81.801
-82.459
-83.166
-83.917
-84.703
-85.516
-86.349
-87.195
-88.048
-88.9
-89.748
-90.586
-91.408
-92.211
-92.991
-93.744
-94.468
-95.16
-95.819
-96.442
-97.029
-97.58
-98.095
-98.573
-99.016
-99.426
-99.804
-100.151
-100.471
-100.766
-101.037
-101.289
-101.523
-101.743
-101.951
-102.15
-102.344
-102.536
-102.728
-102.923
-103.123
-103.332
-103.55
-103.781
-104.025
-104.283
-104.557
-104.848
-105.156
-105.481
-105.825
-106.187
-106.567
-106.966
-107.382
-107.815
-108.265
-108.73
-109.209
-109.702
-110.207
-110.722
-111.246
-111.777
-112.314
-112.854
-113.397
-113.94
-114.482
-115.021
-115.556
-116.084
-116.605
-117.117
-117.619
-118.111
-118.591
-119.059
-119.514
-119.956
-120.385
-120.8
-121.202
-121.589
-121.963
-122.324
-122.67
-123.003
-123.324
-123.631
-123.927
-124.211
-124.485
-124.748
-125.002
-125.247
-125.484
-125.715
-125.94
-126.16
-126.377
-126.59
-126.801
-127.012
-127.223
-127.434
-127.648
-127.863
-128.082
-128.304
-128.53
-128.76
-128.995
-129.235
-129.481
-129.732
-129.989
-130.252
-130.521
-130.796
-131.078
-131.366
-131.661
-131.962
-132.269
-132.582
-132.901
-133.225
-133.556
-133.891
-134.232
-134.577
-134.927
-135.28
-135.637
-135.998
-136.361
-136.726
-137.093
-137.462
-137.833
-138.205
-138.579
-138.954
-139.33
-139.707
-140.086
-140.467
-140.849
-141.233
-141.62
-142.01
-142.402
-142.799
-143.2
-143.606
-144.018
-144.436
-144.861
-145.293
-145.733
-146.181
-146.639
-147.105
-147.582
-148.069
-148.568
-149.078
-149.599
-150.133
-150.678
-151.236
-151.805
-152.384
-152.975
-153.575
-154.183
-154.799
-155.42
-156.046
-156.674
-157.302
-157.926
-158.545
-159.154
-159.75
-160.329
-160.887
-161.421
-161.926
-162.397
-162.831
-163.223
-163.567
-163.86
-164.096
-164.269
-164.375
-164.408
-164.362
-164.233
-164.016
-163.705
-163.297
-162.786
-162.169
-161.441
-160.599
-159.639
-158.559
-157.356
-156.029
-154.576
-152.998
-151.294
-149.466
-147.516
-145.446
-143.26
-140.96
-138.552
-136.039
-133.428
-130.725
-127.937
-125.072
-122.139
-119.149
-116.113
-113.046
-109.961
-106.877
-103.809
-100.774
-97.789
-94.872
-92.041
-89.313
-86.696
-84.201
-81.84
-79.625
-77.579
-75.719
-74.046
-72.574
-71.333
-70.343
-69.622
-69.172
-68.963
-68.987
-69.275
-69.808
-70.48
-71.266
-72.199
-73.261
-74.546
-75.854
-76.498
-76.535
-76.548
-77.452
-81.068
-87.392
-94.502
-100.523
-102.794
-100.914
-97.335
-93.936
-92.716
-94.171
-96.474
-98.546
-99.764
-99.945
-99.98
-100.399
-101.256
-102.612
-104.245
-105.867
-107.327
-108.422
-108.889
-108.463
-106.932
-104.212
-100.474
-96.087
-91.497
-87.215
-83.739
-81.668
-81.668
-84.187
-89.363
-97.098
-106.658
-116.623
-125.578
-131.761
-133.982
-132.711
-127.932
-118.412
-101.567
-71.996
-25.026
39.858
120.556
211.55
306.173
401.129
493.206
578.449
653.144
711.732
750.923
772.358
779.911
777.729
766.916
742.832
697.573
625.671
527.214
409.42
285.916
170.535
73.258
0.245
-47.571
-72.591
-76.917
-64.976
-43.206
-17.412
5.132
19.028
23.793
20.696
13.263
6.564
2.965
2.982
6.309
10.096
11.734
10.372
5.301
-2.215
-9.831
-16.38
-20.832
-23.002
-23.713
-23.329
-22.092
-20.351
-18.252
-16.093
-14.321
-13.105
-12.44
-12.287
-12.491
-12.875
-13.281
-13.491
-13.314
-12.696
-11.684
-10.357
-8.812
-7.109
-5.291
-3.423
-1.557
0.285
2.118
3.994
5.948
7.98
10.073
12.202
14.369
16.613
18.987
21.532
24.278
27.242
30.443
33.912
37.653
41.648
45.856
50.214
54.679
59.247
63.91
68.656
73.483
78.383
83.341
88.368
93.459
98.572
103.688
108.816
113.9
118.846
123.658
128.363
132.933
137.517
141.912
145.45
148.302
151.027
154.51
160.822
169.988
179.812
188.333
192.222
190.587
186.79
183.309
183.155
187.887
194.516
200.989
205.834
207.702
208.118
208.149
207.919
207.933
207.756
206.982
205.764
204.047
201.821
199.15
195.966
192.209
187.853
182.833
177.107
170.684
163.616
155.989
147.875
139.326
130.385
121.089
111.488
101.638
91.581
81.349
70.986
60.539
50.077
39.692
29.446
19.375
9.496
-0.206
-9.73
-19.061
-28.19
-37.109
-45.807
-54.276
-62.495
-70.432
-78.066
-85.385
-92.39
-99.095
-105.503
-111.605
-117.389
-122.833
-127.922
-132.65
-137.007
-140.985
-144.58
-147.792
-150.632
-153.118
-155.267
-157.089
-158.598
-159.801
-160.713
-161.348
-161.725
-161.862
-161.777
-161.489
-161.017
-160.384
-159.609
-158.711
-157.704
-156.605
-155.426
-154.183
-152.89
-151.56
-150.206
-148.838
-147.47
-146.113
-144.776
-143.469
-142.198
-140.969
-139.789
-138.66
-137.586
-136.57
-135.611
-134.709
-133.865
-133.075
-132.339
-131.651
-131.01
-130.409
-129.844
-129.309
-128.798
-128.304
-127.82
-127.338
-126.852
-126.354
-125.836
-125.291
-124.711
-124.09
-123.421
-122.696
-121.909
-121.053
-120.122
-119.111
-118.015
-116.828
-115.548
-114.169
-112.691
-111.11
-109.425
-107.636
-105.741
-103.742
-101.638
-99.432
-97.126
-94.721
-92.222
-89.632
-86.955
-84.196
-81.359
-78.452
-75.479
-72.446
-69.36
-66.227
-63.054
-59.848
-56.614
-53.36
-50.093
-46.818
-43.543
-40.274
-37.016
-33.775
-30.556
-27.365
-24.205
-21.082
-17.998
-14.957
-11.962
-9.016
-6.119
-3.274
-0.482
2.258
4.945
7.579
10.162
12.695
15.18
17.619
20.015
22.371
24.689
26.973
29.227
31.455
33.659
35.844
38.014
40.172
42.323
44.47
46.617
48.768
50.924
53.091
55.27
57.464
59.675
61.906
64.159
66.435
68.736
71.062
73.414
75.792
78.196
80.627
83.082
85.561
88.062
90.584
93.125
95.682
98.252
100.833
103.421
106.014
108.607
111.198
113.782
116.356
118.916
121.457
123.975
126.467
128.927
131.352
133.738
136.079
138.372
140.612
142.795
144.916
146.972
148.957
150.867
152.7
154.45
156.114
157.69
159.173
160.562
161.853
163.044
164.134
165.121
166.003
166.78
167.452
168.018
168.479
168.835
169.088
169.24
169.292
169.248
169.11
168.882
168.569
168.175
167.705
167.165
166.562
165.902
165.193
164.443
163.66
162.852
162.03
161.201
160.375
159.563
158.772
158.015
157.3
156.637
156.035
155.504
155.052
154.69
154.426
154.268
154.223
154.3
154.505
154.845
155.325
155.95
156.724
157.651
158.733
159.971
161.368
162.921
164.629
166.492
168.505
170.665
172.966
175.403
177.969
180.658
183.46
186.367
189.366
192.447
195.598
198.807
202.059
205.34
208.633
211.922
215.19
218.42
221.595
224.694
227.696
230.582
233.334
235.939
238.382
240.647
242.72
244.589
246.25
247.702
248.943
249.963
250.754
251.309
251.632
251.73
251.609
251.267
250.704
249.919
248.922
247.733
246.359
244.808
243.076
241.162
239.082
236.872
234.577
232.245
229.916
227.631
225.45
223.443
221.682
220.258
219.207
218.528
218.205
218.166
218.348
218.716
219.171
219.542
219.743
219.752
219.663
219.798
220.437
221.768
224.031
227.407
231.962
237.708
244.405
251.432
258.126
263.781
267.74
269.625
269.102
265.953
259.859
250.404
238.089
223.953
210.012
199.681
194.428
194.181
197.759
201.272
203.617
207.2
216.169
238.81
282.135
349.347
440.747
550.201
667.913
782.945
884.12
965.29
1025.394
1067.609
1098.749
1122.862
1139.706
1145.171
1130.155
1087.389
1014.81
914.5
796.076
671.518
550.477
442.73
353.359
284.081
237.041
210.164
200.708
206.709
223.966
250.421
283.999
319.67
352.164
374.529
381.045
371.865
351.667
329.098
313.077
307.319
310.481
317.232
321.167
319.27
312
301.948
292.288
284.502
278.29
272.733
267.124
261.076
254.472
247.087
238.121
227.772
217.425
209.392
206.844
210.874
220.557
233.179
244.316
251.223
252.483
248.452
241.606
234.018
227.759
223.203
218.836
213.078
203.566
190.363
176.026
163.201
155.996
155.982
161.245
169.326
175.318
175.301
168.325
154.502
137.217
120.986
109.365
104.861
106.74
112.096
117.339
119.573
118.185
114.235
109.67
105.979
103.535
102.09
101.077
100.2
99.5
99.023
98.784
98.699
98.655
98.623
98.545
98.354
98.085
97.721
97.24
96.823
96.24
95.156
93.988
92.876
92.498
94.133
97.093
100.303
102.631
101.917
98.482
94.37
90.96
90.407
93.199
97.232
101.246
103.974
104.487
103.9
102.845
101.389
99.875
97.829
94.833
90.939
86.02
80.029
72.988
64.802
55.397
44.766
32.907
19.832
5.613
-9.63
-25.749
-42.55
-59.858
-77.527
-95.418
-113.396
-131.32
-149.051
-166.44
-183.339
-199.601
-215.076
-229.642
-243.21
-255.734
-267.194
-277.604
-287.019
-295.496
-303.094
-309.873
-315.873
-321.138
-325.746
-329.802
-333.362
-336.476
-339.285
-341.876
-344.306
-346.744
-348.906
-350.494
-351.948
-353.394
-355.626
-359.602
-364.239
-368.8
-372.197
-372.927
-372.236
-371.178
-370.468
-371.318
-372.822
-374.066
-374.843
-374.61
-373.703
-372.55
-371.098
-369.418
-367.497
-365.269
-362.812
-360.195
-357.438
-354.565
-351.602
-348.568
-345.472
-342.325
-339.129
-335.882
-332.586
-329.248
-325.867
-322.448
-318.998
-315.524
-312.033
-308.531
-305.021
-301.509
-298.002
-294.511
-291.046
-287.621
-284.246
-280.936
-277.706
-274.571
-271.545
-268.641
-265.869
-263.24
-260.763
-258.449
-256.308
-254.355
-252.602
-251.057
-249.725
-248.606
-247.699
-247.008
-246.545
-246.317
-246.325
-246.569
-247.04
-247.743
-248.71
-249.925
-251.339
-252.903
-254.554
-256.286
-258.179
-260.256
-262.473
-264.869
-267.519
-270.517
-274.022
-278.019
-282.28
-286.678
-291.167
-295.629
-299.951
-303.966
-307.393
-310.194
-312.604
-314.758
-316.733
-318.619
-320.442
-322.3
-324.413
-326.8
-329.275
-331.717
-334.025
-336.129
-338.047
-339.742
-341.102
-342.113
-342.843
-343.342
-343.67
-343.853
-343.867
-343.715
-343.425
-343.01
-342.474
-341.821
-341.05
-340.17
-339.205
-338.174
-337.094
-335.979
-334.839
-333.683
-332.523
-331.372
-330.241
-329.14
-328.08
-327.069
-326.115
-325.227
-324.411
-323.675
-323.023
-322.459
-321.985
-321.606
-321.324
-321.143
-321.062
-321.083
-321.204
-321.425
-321.743
-322.155
-322.658
-323.248
-323.921
-324.67
-325.492
-326.381
-327.33
-328.333
-329.384
-330.475
-331.601
-332.754
-333.927
-335.112
-336.303
-337.493
-338.673
-339.837
-340.976
-342.084
-343.153
-344.175
-345.143
-346.051
-346.889
-347.653
-348.335
-348.928
-349.428
-349.828
-350.124
-350.31
-350.381
-350.335
-350.166
-349.872
-349.449
-348.894
-348.206
-347.381
-346.419
-345.319
-344.079
-342.699
-341.18
-339.521
-337.725
-335.791
-333.723
-331.524
-329.196
-326.745
-324.174
-321.489
-318.696
-315.802
-312.813
-309.739
-306.586
-303.363
-300.079
-296.743
-293.365
-289.956
-286.524
-283.08
-279.637
-276.208
-272.807
-269.449
-266.148
-262.921
-259.784
-256.754
-253.846
-251.073
-248.448
-245.983
-243.688
-241.575
-239.656
-237.939
-236.429
-235.131
-234.046
-233.176
-232.514
-232.053
-231.782
-231.689
-231.767
-232.015
-232.431
-233.014
-233.761
-234.665
-235.715
-236.901
-238.208
-239.612
-241.094
-242.63
-244.192
-245.758
-247.3
-248.782
-250.172
-251.41
-252.414
-253.127
-253.519
-253.594
-253.42
-253.065
-252.564
-252.003
-251.501
-251.114
-250.852
-250.603
-250.074
-248.991
-247.198
-244.526
-240.814
-236.006
-230.058
-223.115
-215.675
-208.262
-201.268
-195.139
-190.295
-187.075
-185.944
-187.239
-190.866
-196.605
-204.266
-213.079
-221.652
-228.484
-231.729
-230.476
-225.855
-218.695
-208.35
-192.022
-163.499
-117.076
-51.337
31.067
123.065
216.274
305.52
387.858
461.678
526.429
580.269
621.679
651.134
668.949
675.059
667.506
641.388
592.468
519.229
424.79
317.385
207.369
105.013
17.748
-50.005
-96.398
-122.343
-129.245
-120.843
-103.103
-81.604
-62.976
-51.381
-46.55
-46.845
-48.317
-47.196
-43.07
-36.709
-30.003
-25.285
-22.938
-22.352
-22.722
-23.034
-22.997
-22.773
-22.398
-21.849
-20.983
-19.702
-18.084
-16.239
-14.262
-12.244
-10.256
-8.433
-6.967
-5.907
-5.174
-4.648
-4.155
-3.539
-2.699
-1.513
0.153
2.354
5.093
8.345
12.038
16.109
20.518
25.211
30.133
35.242
40.491
45.834
51.24
56.665
62.079
67.467
72.812
78.114
83.377
88.609
93.827
99.051
104.296
109.573
114.895
120.269
125.708
131.223
136.827
142.529
148.336
154.257
160.298
166.465
172.76
179.178
185.709
192.344
199.075
205.892
212.784
219.737
226.732
233.761
240.811
247.873
254.933
261.968
268.949
275.853
282.65
289.322
295.852
302.213
308.377
314.326
320.035
325.493
330.687
335.577
340.123
344.294
348.049
351.373
354.25
356.657
358.576
359.988
360.87
361.215
361.019
360.264
358.939
357.026
354.509
351.411
347.762
343.581
338.898
333.73
328.091
322.014
315.529
308.664
301.451
293.916
286.082
277.996
269.699
261.237
252.661
243.991
235.245
226.453
217.637
208.828
200.061
191.355
182.733
174.225
165.859
157.664
149.669
141.89
134.339
127.032
119.978
113.197
106.709
100.527
94.661
89.122
83.914
79.046
74.524
70.347
66.508
63.005
59.828
56.974
54.436
52.207
50.275
48.63
47.257
46.145
45.279
44.645
44.228
44.011
43.977
44.113
44.405
44.837
45.394
46.063
46.829
47.678
48.598
49.576
50.599
51.656
52.737
53.83
54.928
56.02
57.1
58.159
59.192
60.191
61.153
62.072
62.943
63.765
64.533
65.245
65.901
66.497
67.035
67.512
67.93
68.288
68.587
68.828
69.013
69.142
69.216
69.239
69.212
69.135
69.011
68.843
68.631
68.377
68.083
67.752
67.384
66.982
66.547
66.081
65.587
65.065
64.518
63.947
63.354
62.742
62.112
61.466
60.805
60.132
59.449
58.758
58.06
57.357
56.652
55.945
55.24
54.537
53.839
53.147
52.463
51.788
51.124
50.474
49.838
49.219
48.618
48.036
47.475
46.937
46.421
45.93
45.463
45.021
44.605
44.214
43.848
43.507
43.19
42.897
42.625
42.374
42.141
41.925
41.723
41.533
41.353
41.179
41.01
40.841
40.669
40.492
40.306
40.108
39.893
39.658
39.4
39.115
38.799
38.449
38.06
37.631
37.158
36.638
36.068
35.447
34.771
34.04
33.252
32.406
31.501
30.536
29.513
28.431
27.292
26.095
24.845
23.541
22.187
20.784
19.337
17.848
16.321
14.759
13.166
11.546
9.904
8.244
6.57
4.888
3.2
1.513
-0.17
-1.845
-3.506
-5.151
-6.776
-8.377
-9.951
-11.495
-13.006
-14.482
-15.921
-17.321
-18.679
-19.996
-21.27
-22.501
-23.688
-24.832
-25.932
-26.989
-28.004
-28.978
-29.911
-30.805
-31.662
-32.481
-33.265
-34.015
-34.731
-35.417
-36.071
-36.696
-37.291
-37.858
-38.395
-38.904
-39.382
-39.829
-40.244
-40.626
-40.972
-41.281
-41.55
-41.778
-41.961
-42.097
-42.184
-42.217
-42.194
-42.112
-41.966
-41.753
-41.47
-41.113
-40.678
-40.163
-39.564
-38.879
-38.105
-37.24
-36.281
-35.227
-34.078
-32.833
-31.492
-30.056
-28.527
-26.907
-25.201
-23.412
-21.544
-19.602
-17.594
-15.524
-13.4
-11.228
-9.018
-6.777
-4.515
-2.243
0.03
2.292
4.528
6.725
8.868
10.94
12.926
14.809
16.571
18.197
19.671
20.981
22.113
23.056
23.799
24.329
24.638
24.718
24.564
24.173
23.543
22.678
21.582
20.263
18.733
16.995
15.051
12.901
10.543
7.981
5.218
2.264
-0.867
-4.153
-7.564
-11.067
-14.633
-18.231
-21.832
-25.406
-28.914
-32.314
-35.555
-38.573
-41.287
-43.644
-45.613
-47.217
-48.537
-49.663
-50.688
-51.737
-52.954
-54.441
-56.221
-58.17
-60.015
-61.496
-62.406
-62.545
-61.717
-59.758
-56.597
-52.454
-47.808
-43.192
-39.154
-36.216
-34.875
-35.653
-39.058
-45.257
-54.077
-65.157
-77.352
-88.922
-98.269
-103.61
-104.355
-101.463
-94.502
-81.952
-60.302
-23.7
30.546
101.534
184.978
273.155
360.318
443.312
520.114
589.721
649.981
697.767
731.989
753.681
763.832
763.176
748.623
713.571
654.105
569.097
463.505
348.846
236.536
137.147
57.967
1.132
-34.002
-49.696
-49.682
-39.042
-22.685
-6.746
3.189
5.717
1.451
-5.951
-11.303
-12.851
-10.775
-6.879
-4.281
-3.978
-5.521
-8.165
-10.583
-12.239
-13.368
-14.088
-14.535
-14.742
-14.516
-13.774
-12.621
-11.136
-9.385
-7.495
-5.568
-3.729
-2.187
-1.037
-0.253
0.178
0.334
0.318
0.185
0.027
-0.037
0.037
0.258
0.637
1.152
1.812
2.663
3.71
4.956
6.417
8.101
10.042
12.27
14.785
17.582
20.657
24.002
27.621
31.516
35.665
40.043
44.62
49.343
54.184
59.117
64.115
69.16
74.227
79.295
84.358
89.416
94.467
99.51
104.543
109.563
114.584
119.615
124.665
129.753
134.882
140.046
145.236
150.431
155.607
160.747
165.832
170.841
175.767
180.597
185.321
189.934
194.415
198.746
202.915
206.898
210.683
214.272
217.671
220.901
223.995
226.955
229.778
232.457
234.954
237.237
239.268
240.992
242.381
243.415
244.064
244.314
244.14
243.493
242.324
240.567
238.137
234.993
231.109
226.465
221.083
214.994
208.234
200.866
192.926
184.424
175.395
165.868
155.881
145.515
134.853
123.997
113.082
102.215
91.479
80.962
70.707
60.745
51.114
41.827
32.921
24.462
16.493
9.051
2.169
-4.164
-9.966
-15.272
-20.157
-24.684
-28.897
-32.843
-36.538
-39.989
-43.216
-46.228
-49.044
-51.71
-54.257
-56.71
-59.101
-61.432
-63.699
-65.891
-67.963
-69.88
-71.62
-73.165
-74.515
-75.677
-76.651
-77.442
-78.06
-78.502
-78.767
-78.86
-78.779
-78.533
-78.138
-77.613
-76.99
-76.302
-75.57
-74.813
-74.047
-73.279
-72.518
-71.773
-71.043
-70.333
-69.647
-68.988
-68.364
-67.778
-67.232
-66.724
-66.251
-65.81
-65.397
-65.012
-64.651
-64.314
-64
-63.708
-63.441
-63.199
-62.982
-62.787
-62.615
-62.46
-62.323
-62.201
-62.09
-61.989
-61.894
-61.804
-61.718
-61.633
-61.547
-61.46
-61.369
-61.274
-61.173
-61.067
-60.953
-60.832
-60.703
-60.566
-60.422
-60.27
-60.11
-59.943
-59.77
-59.589
-59.404
-59.213
-59.017
-58.819
-58.617
-58.414
-58.212
-58.011
-57.814
-57.624
-57.442
-57.272
-57.115
-56.975
-56.854
-56.755
-56.68
-56.633
-56.615
-56.63
-56.68
-56.766
-56.892
-57.06
-57.272
-57.53
-57.836
-58.192
-58.599
-59.059
-59.574
-60.144
-60.772
-61.458
-62.202
-63.006
-63.87
-64.794
-65.777
-66.819
-67.918
-69.074
-70.285
-71.549
-72.863
-74.225
-75.632
-77.082
-78.57
-80.094
-81.65
-83.235
-84.843
-86.473
-88.119
-89.778
-91.445
-93.117
-94.789
-96.458
-98.12
-99.769
-101.404
-103.019
-104.61
-106.174
-107.708
-109.208
-110.669
-112.091
-113.469
-114.8
-116.084
-117.318
-118.5
-119.628
-120.703
-121.723
-122.687
-123.596
-124.45
-125.248
-125.993
-126.684
-127.322
-127.91
-128.448
-128.937
-129.381
-129.78
-130.137
-130.454
-130.733
-130.976
-131.187
-131.367
-131.52
-131.648
-131.754
-131.842
-131.913
-131.972
-132.02
-132.061
-132.096
-132.129
-132.162
-132.196
-132.234
-132.278
-132.329
-132.389
-132.458
-132.538
-132.629
-132.732
-132.848
-132.975
-133.114
-133.265
-133.427
-133.598
-133.777
-133.964
-134.157
-134.353
-134.55
-134.746
-134.937
-135.122
-135.295
-135.453
-135.593
-135.71
-135.801
-135.861
-135.886
-135.871
-135.813
-135.706
-135.547
-135.331
-135.053
-134.71
-134.296
-133.808
-133.241
-132.592
-131.858
-131.035
-130.12
-129.11
-128.003
-126.797
-125.491
-124.083
-122.573
-120.961
-119.246
-117.431
-115.517
-113.508
-111.405
-109.213
-106.936
-104.579
-102.149
-99.65
-97.089
-94.474
-91.813
-89.115
-86.388
-83.642
-80.889
-78.141
-75.413
-72.718
-70.074
-67.495
-64.999
-62.604
-60.327
-58.184
-56.191
-54.36
-52.707
-51.245
-49.988
-48.948
-48.137
-47.562
-47.231
-47.148
-47.316
-47.731
-48.391
-49.289
-50.421
-51.789
-53.393
-55.234
-57.314
-59.63
-62.176
-64.938
-67.902
-71.041
-74.33
-77.743
-81.252
-84.828
-88.439
-92.048
-95.613
-99.089
-102.413
-105.508
-108.32
-110.817
-113.012
-114.977
-116.782
-118.483
-120.183
-122.002
-124.012
-126.241
-128.599
-130.825
-132.72
-134.148
-134.934
-134.931
-134.04
-132.172
-129.452
-126.304
-123.09
-120.158
-117.951
-116.81
-117.101
-119.303
-123.687
-130.184
-138.758
-148.824
-158.923
-167.63
-173.4
-175.446
-174.918
-172.698
-167.893
-157.295
-134.447
-93.144
-31.416
48.179
138.493
231.02
320.271
403.701
480.511
549.958
609.716
656.672
689.621
709.798
718.421
716.034
699.444
662.116
600.386
513.819
408.069
294.419
183.219
83.876
1.915
-60.606
-102.241
-123.631
-125.406
-111.128
-87.443
-61.461
-41.614
-31.673
-30.532
-34.807
-38.466
-38.736
-36.338
-33.087
-32.198
-34.715
-39.602
-45.67
-51.144
-55.045
-57.289
-57.733
-56.544
-54.075
-50.556
-46.29
-41.687
-37.047
-32.654
-28.843
-25.728
-23.267
-21.396
-19.977
-18.851
-17.918
-17.053
-16.084
-14.94
-13.615
-12.12
-10.521
-8.855
-7.135
-5.393
-3.657
-1.927
-0.186
1.611
3.515
5.554
7.752
10.137
12.722
15.528
18.576
21.874
25.432
29.257
33.355
37.729
42.378
47.285
52.42
57.742
63.212
68.805
74.497
80.262
86.082
91.939
97.823
103.739
109.689
115.677
121.706
127.773
133.877
140.021
146.202
152.42
158.668
164.927
171.185
177.43
183.654
189.854
196.023
202.149
208.212
214.189
220.054
225.786
231.365
236.775
242.006
247.062
251.948
256.681
261.262
265.682
269.914
273.91
277.617
280.969
283.916
286.418
288.439
289.949
290.918
291.318
291.11
290.252
288.692
286.37
283.244
279.294
274.526
268.974
262.696
255.769
248.263
240.24
231.758
222.866
213.612
204.046
194.22
184.194
174.035
163.829
153.649
143.559
133.603
123.803
114.167
104.683
95.345
86.153
77.11
68.231
59.533
51.036
42.758
34.722
26.939
19.408
12.131
5.108
-1.654
-8.14
-14.33
-20.198
-25.721
-30.882
-35.667
-40.07
-44.09
-47.73
-51.001
-53.916
-56.486
-58.722
-60.633
-62.23
-63.526
-64.534
-65.273
-65.76
-66.017
-66.061
-65.915
-65.596
-65.123
-64.512
-63.78
-62.939
-62.005
-60.99
-59.91
-58.777
-57.606
-56.409
-55.199
-53.988
-52.785
-51.601
-50.444
-49.32
-48.235
-47.195
-46.202
-45.262
-44.375
-43.544
-42.77
-42.052
-41.391
-40.785
-40.233
-39.733
-39.282
-38.879
-38.518
-38.198
-37.915
-37.663
-37.441
-37.244
-37.068
-36.909
-36.763
-36.627
-36.496
-36.367
-36.237
-36.103
-35.96
-35.807
-35.641
-35.461
-35.264
-35.05
-34.819
-34.569
-34.301
-34.015
-33.712
-33.391
-33.054
-32.703
-32.338
-31.961
-31.573
-31.177
-30.775
-30.368
-29.959
-29.549
-29.142
-28.74
-28.344
-27.957
-27.583
-27.222
-26.877
-26.551
-26.245
-25.962
-25.703
-25.469
-25.263
-25.085
-24.936
-24.818
-24.73
-24.674
-24.648
-24.654
-24.691
-24.759
-24.857
-24.985
-25.142
-25.328
-25.541
-25.782
-26.048
-26.339
-26.654
-26.992
-27.351
-27.73
-28.129
-28.544
-28.976
-29.422
-29.881
-30.351
-30.832
-31.321
-31.817
-32.319
-32.825
-33.335
-33.846
-34.359
-34.871
-35.383
-35.892
-36.399
-36.903
-37.402
-37.897
-38.387
-38.871
-39.348
-39.818
-40.28
-40.733
-41.178
-41.612
-42.036
-42.449
-42.851
-43.24
-43.617
-43.98
-44.331
-44.668
-44.991
-45.3
-45.596
-45.878
-46.147
-46.402
-46.645
-46.876
-47.095
-47.302
-47.499
-47.686
-47.865
-48.035
-48.198
-48.356
-48.509
-48.66
-48.809
-48.96
-49.113
-49.27
-49.435
-49.609
-49.795
-49.995
-50.212
-50.448
-50.705
-50.986
-51.294
-51.63
-51.997
-52.396
-52.828
-53.296
-53.8
-54.342
-54.922
-55.54
-56.197
-56.892
-57.625
-58.394
-59.2
-60.039
-60.91
-61.812
-62.74
-63.691
-64.663
-65.651
-66.65
-67.655
-68.661
-69.663
-70.654
-71.627
-72.577
-73.497
-74.379
-75.217
-76.005
-76.736
-77.402
-77.998
-78.517
-78.953
-79.298
-79.549
-79.699
-79.743
-79.677
-79.496
-79.197
-78.777
-78.234
-77.565
-76.77
-75.847
-74.797
-73.621
-72.32
-70.898
-69.358
-67.704
-65.943
-64.08
-62.122
-60.077
-57.954
-55.761
-53.508
-51.207
-48.867
-46.501
-44.12
-41.737
-39.367
-37.026
-34.729
-32.495
-30.342
-28.288
-26.353
-24.556
-22.915
-21.445
-20.161
-19.077
-18.207
-17.563
-17.159
-17.004
-17.107
-17.472
-18.101
-18.997
-20.155
-21.566
-23.219
-25.104
-27.213
-29.545
-32.101
-34.88
-37.878
-41.087
-44.495
-48.089
-51.849
-55.749
-59.763
-63.859
-68.006
-72.177
-76.341
-80.461
-84.501
-88.391
-92.045
-95.401
-98.426
-101.122
-103.557
-105.795
-107.877
-109.905
-112.013
-114.284
-116.749
-119.316
-121.716
-123.687
-125.085
-125.738
-125.455
-124.137
-121.686
-118.161
-113.972
-109.577
-105.294
-101.544
-98.824
-97.536
-98.213
-101.384
-107.168
-115.543
-126.575
-139.416
-152.175
-163.12
-170.339
-173.11
-173.125
-170.982
-164.878
-150.638
-120.797
-68.995
5.941
100.582
207.155
315.629
418.012
508.802
584.374
644.164
689.362
721.762
743.386
754.136
750.373
726.237
676.139
597.505
494.259
376.199
255.75
145.489
53.235
-18.075
-68.319
-100.137
-115.056
-114.793
-103.545
-85.849
-68.454
-57.249
-53.386
-55.767
-60.348
-62.606
-61.694
-58.401
-54.779
-53.486
-54.899
-58.153
-62.27
-65.891
-68.365
-69.74
-69.978
-69.084
-67.233
-64.586
-61.329
-57.795
-54.278
-50.984
-48.162
-46.022
-44.586
-43.792
-43.545
-43.688
-44.109
-44.712
-45.337
-45.83
-46.111
-46.153
-45.961
-45.557
-44.924
-44.02
-42.838
-41.394
-39.71
-37.808
-35.684
-33.319
-30.692
-27.808
-24.687
-21.345
-17.789
-14.018
-10.036
-5.863
-1.539
2.888
7.391
11.958
16.585
21.27
26.004
30.773
35.569
40.394
45.252
50.145
55.074
60.04
65.052
70.125
75.278
80.53
85.891
91.359
96.927
102.578
108.285
114.023
119.768
125.501
131.215
136.897
142.535
148.118
153.627
159.056
164.398
169.64
174.767
179.762
184.62
189.354
193.998
198.574
203.085
207.513
211.817
215.964
219.919
223.64
227.071
230.139
232.777
234.939
236.602
237.744
238.327
238.292
237.547
236.025
233.689
230.529
226.55
221.755
216.145
209.741
202.599
194.797
186.402
177.452
167.949
157.907
147.364
136.387
125.075
113.517
101.779
89.925
78.023
66.157
54.419
42.893
31.619
20.623
9.945
-0.352
-10.168
-19.416
-28.039
-36.003
-43.299
-49.92
-55.851
-61.093
-65.675
-69.645
-73.066
-76.013
-78.523
-80.626
-82.365
-83.79
-84.981
-86.008
-86.919
-87.747
-88.522
-89.267
-90.011
-90.771
-91.538
-92.292
-93
-93.622
-94.141
-94.545
-94.821
-94.96
-94.944
-94.759
-94.407
-93.897
-93.239
-92.439
-91.504
-90.443
-89.277
-88.032
-86.738
-85.427
-84.122
-82.84
-81.597
-80.407
-79.278
-78.218
-77.229
-76.305
-75.444
-74.645
-73.907
-73.23
-72.61
-72.04
-71.515
-71.03
-70.579
-70.157
-69.761
-69.386
-69.03
-68.69
-68.367
-68.059
-67.767
-67.487
-67.22
-66.962
-66.71
-66.464
-66.221
-65.978
-65.734
-65.487
-65.236
-64.982
-64.725
-64.464
-64.201
-63.937
-63.671
-63.407
-63.144
-62.884
-62.629
-62.381
-62.139
-61.907
-61.684
-61.473
-61.274
-61.088
-60.915
-60.756
-60.609
-60.477
-60.357
-60.25
-60.155
-60.072
-60
-59.94
-59.889
-59.849
-59.817
-59.793
-59.777
-59.766
-59.759
-59.756
-59.754
-59.753
-59.75
-59.745
-59.736
-59.722
-59.701
-59.672
-59.633
-59.585
-59.525
-59.454
-59.37
-59.273
-59.163
-59.04
-58.905
-58.757
-58.597
-58.426
-58.245
-58.053
-57.853
-57.645
-57.429
-57.207
-56.979
-56.747
-56.512
-56.274
-56.035
-55.796
-55.556
-55.318
-55.082
-54.848
-54.619
-54.393
-54.172
-53.956
-53.747
-53.544
-53.349
-53.161
-52.981
-52.809
-52.646
-52.491
-52.344
-52.207
-52.079
-51.96
-51.85
-51.751
-51.662
-51.583
-51.516
-51.461
-51.418
-51.389
-51.374
-51.374
-51.39
-51.423
-51.474
-51.544
-51.634
-51.745
-51.879
-52.035
-52.216
-52.422
-52.653
-52.91
-53.194
-53.505
-53.843
-54.207
-54.598
-55.014
-55.456
-55.921
-56.408
-56.916
-57.441
-57.982
-58.534
-59.095
-59.659
-60.223
-60.782
-61.331
-61.865
-62.377
-62.863
-63.316
-63.731
-64.1
-64.418
-64.677
-64.872
-64.995
-65.041
-65.001
-64.87
-64.641
-64.309
-63.869
-63.314
-62.64
-61.842
-60.916
-59.859
-58.669
-57.342
-55.877
-54.275
-52.536
-50.661
-48.652
-46.513
-44.249
-41.863
-39.363
-36.753
-34.042
-31.237
-28.348
-25.383
-22.355
-19.274
-16.152
-13.005
-9.847
-6.696
-3.569
-0.484
2.538
5.479
8.317
11.033
13.608
16.026
18.27
20.323
22.171
23.799
25.193
26.342
27.238
27.873
28.242
28.343
28.179
27.756
27.08
26.155
24.977
23.544
21.856
19.911
17.715
15.272
12.596
9.707
6.637
3.419
0.085
-3.335
-6.815
-10.324
-13.824
-17.272
-20.614
-23.785
-26.709
-29.327
-31.604
-33.551
-35.24
-36.765
-38.242
-39.808
-41.616
-43.775
-46.313
-49.116
-51.923
-54.44
-56.385
-57.49
-57.498
-56.198
-53.508
-49.623
-44.997
-40.23
-36.006
-32.942
-31.614
-32.657
-36.621
-43.731
-53.973
-66.5
-79.524
-91.461
-100.718
-106.866
-111.032
-112.886
-110.573
-99.745
-73.648
-28.573
35.425
114.292
200.182
287.267
372.409
453.951
531.595
603.346
665.509
715.218
751.776
775.893
788.572
789.425
773.482
734.662
669.584
577.673
466.019
346.638
230.732
129.44
48.982
-9.352
-45.068
-60.072
-57.195
-40.36
-16.274
7.188
23.303
29.356
27.004
21.354
18.053
19.154
23.754
29.045
31.586
30.471
26.568
21.107
15.724
11.22
7.657
5.218
4.02
3.978
4.98
6.828
9.175
11.707
14.178
16.287
17.764
18.544
18.683
18.295
17.566
16.645
15.637
14.672
13.887
13.34
13.042
12.988
13.146
13.517
14.137
15.008
16.118
17.456
18.997
20.725
22.64
24.734
27.002
29.455
32.098
34.94
37.999
41.274
44.755
48.421
52.23
56.147
60.158
64.247
68.416
72.667
76.996
81.404
85.9
90.481
95.15
99.904
104.73
109.625
114.588
119.623
124.741
129.944
135.217
140.551
145.933
151.348
156.789
162.238
167.664
173.043
178.35
183.571
188.702
193.741
198.682
203.533
208.31
213.038
217.757
222.488
227.231
231.977
236.711
241.425
246.117
250.772
255.364
259.856
264.201
268.352
272.254
275.824
278.951
281.509
283.368
284.424
284.611
283.869
282.151
279.401
275.567
270.625
264.575
257.424
249.184
239.865
229.495
218.156
205.969
193.075
179.628
165.756
151.565
137.171
122.696
108.27
94.028
80.07
66.48
53.343
40.751
28.805
17.589
7.132
-2.572
-11.545
-19.82
-27.415
-34.348
-40.66
-46.407
-51.657
-56.487
-60.947
-65.077
-68.927
-72.553
-76.025
-79.402
-82.709
-85.951
-89.128
-92.238
-95.286
-98.273
-101.179
-103.976
-106.628
-109.094
-111.356
-113.399
-115.21
-116.772
-118.069
-119.086
-119.829
-120.314
-120.555
-120.566
-120.362
-119.956
-119.375
-118.652
-117.818
-116.908
-115.948
-114.96
-113.963
-112.976
-112.016
-111.095
-110.221
-109.397
-108.626
-107.913
-107.262
-106.678
-106.16
-105.707
-105.315
-104.983
-104.707
-104.486
-104.317
-104.197
-104.126
-104.101
-104.122
-104.187
-104.295
-104.443
-104.628
-104.844
-105.088
-105.355
-105.642
-105.942
-106.252
-106.566
-106.881
-107.194
-107.5
-107.795
-108.078
-108.343
-108.588
-108.811
-109.009
-109.18
-109.322
-109.434
-109.515
-109.563
-109.578
-109.56
-109.509
-109.423
-109.305
-109.153
-108.969
-108.753
-108.507
-108.233
-107.931
-107.605
-107.255
-106.884
-106.494
-106.089
-105.669
-105.238
-104.798
-104.351
-103.9
-103.447
-102.994
-102.543
-102.097
-101.657
-101.225
-100.803
-100.393
-99.995
-99.613
-99.246
-98.896
-98.564
-98.25
-97.956
-97.682
-97.428
-97.193
-96.978
-96.783
-96.607
-96.448
-96.308
-96.184
-96.075
-95.981
-95.9
-95.831
-95.772
-95.723
-95.681
-95.645
-95.614
-95.586
-95.56
-95.535
-95.509
-95.482
-95.451
-95.417
-95.378
-95.333
-95.281
-95.222
-95.154
-95.077
-94.992
-94.897
-94.793
-94.681
-94.559
-94.429
-94.291
-94.146
-93.995
-93.838
-93.678
-93.514
-93.35
-93.186
-93.023
-92.864
-92.711
-92.564
-92.426
-92.299
-92.184
-92.083
-91.996
-91.927
-91.876
-91.844
-91.833
-91.845
-91.879
-91.938
-92.022
-92.132
-92.268
-92.43
-92.619
-92.834
-93.076
-93.343
-93.634
-93.949
-94.286
-94.644
-95.019
-95.411
-95.816
-96.231
-96.652
-97.076
-97.499
-97.916
-98.323
-98.715
-99.088
-99.437
-99.756
-100.041
-100.287
-100.487
-100.638
-100.734
-100.768
-100.737
-100.633
-100.453
-100.191
-99.842
-99.402
-98.866
-98.23
-97.49
-96.642
-95.685
-94.615
-93.43
-92.129
-90.711
-89.177
-87.528
-85.765
-83.892
-81.911
-79.827
-77.644
-75.368
-73.006
-70.564
-68.049
-65.47
-62.837
-60.158
-57.444
-54.707
-51.96
-49.217
-46.495
-43.811
-41.18
-38.623
-36.156
-33.801
-31.574
-29.493
-27.572
-25.828
-24.277
-22.933
-21.812
-20.925
-20.284
-19.894
-19.762
-19.891
-20.28
-20.926
-21.82
-22.957
-24.332
-25.949
-27.809
-29.911
-32.254
-34.828
-37.622
-40.622
-43.808
-47.153
-50.633
-54.215
-57.866
-61.558
-65.256
-68.926
-72.529
-76
-79.256
-82.242
-84.925
-87.307
-89.444
-91.379
-93.133
-94.791
-96.465
-98.224
-100.099
-102.017
-103.773
-105.195
-106.206
-106.688
-106.501
-105.562
-103.777
-101.165
-97.99
-94.511
-90.903
-87.467
-84.552
-82.452
-81.68
-82.743
-85.85
-91.256
-98.83
-107.509
-116.091
-123.307
-128.283
-131.754
-134.283
-134.719
-129.87
-113.5
-79.337
-24.916
48.102
133.528
223.295
311.925
396.461
475.639
548.633
612.994
665.431
704.184
729.825
743.73
746.772
736.638
707.24
653.06
571.697
466.914
349.01
230.685
124.185
37.115
-27.631
-70.2
-93.579
-99.711
-91.125
-72.491
-48.462
-25.877
-10.682
-4.271
-5.584
-10.377
-13.753
-14.274
-12.41
-10.269
-10.422
-13.165
-17.713
-22.924
-27.352
-30.501
-32.366
-32.817
-32.047
-30.325
-27.799
-24.781
-21.592
-18.421
-15.516
-13.144
-11.391
-10.229
-9.575
-9.237
-9.036
-8.853
-8.545
-8.011
-7.225
-6.188
-4.93
-3.505
-1.953
-0.302
1.421
3.213
5.105
7.118
9.261
11.53
13.906
16.382
18.965
21.688
24.578
27.651
30.922
34.402
38.108
42.049
46.219
50.583
55.09
59.706
64.412
69.203
74.078
79.03
84.042
89.099
94.197
99.333
104.501
109.693
114.895
120.102
125.324
130.584
135.904
141.289
146.732
152.225
157.758
163.321
168.899
174.466
179.993
185.461
190.863
196.195
201.446
206.591
211.592
216.41
221.021
225.413
229.578
233.5
237.159
240.537
243.637
246.476
249.054
251.343
253.294
254.863
256.031
256.806
257.198
257.203
256.803
255.965
254.661
252.883
250.612
247.823
244.466
240.485
235.858
230.612
224.792
218.433
211.537
204.076
196.039
187.448
178.345
168.784
158.816
148.489
137.878
127.088
116.236
105.44
94.78
84.288
73.996
63.951
54.226
44.924
36.12
27.849
20.136
13.002
6.455
0.501
-4.898
-9.819
-14.335
-18.506
-22.371
-25.934
-29.212
-32.236
-35.052
-37.717
-40.274
-42.743
-45.144
-47.501
-49.827
-52.125
-54.369
-56.504
-58.491
-60.307
-61.942
-63.402
-64.69
-65.798
-66.723
-67.465
-68.025
-68.411
-68.629
-68.678
-68.569
-68.317
-67.952
-67.512
-67.03
-66.525
-66.016
-65.512
-65.025
-64.566
-64.141
-63.75
-63.393
-63.074
-62.796
-62.565
-62.382
-62.247
-62.154
-62.099
-62.077
-62.084
-62.116
-62.17
-62.243
-62.332
-62.437
-62.559
-62.696
-62.847
-63.01
-63.181
-63.357
-63.536
-63.715
-63.89
-64.058
-64.219
-64.37
-64.509
-64.637
-64.751
-64.852
-64.938
-65.011
-65.07
-65.116
-65.149
-65.171
-65.182
-65.183
-65.178
-65.167
-65.151
-65.134
-65.116
-65.1
-65.087
-65.079
-65.077
-65.083
-65.099
-65.125
-65.163
-65.216
-65.283
-65.367
-65.469
-65.59
-65.731
-65.893
-66.076
-66.28
-66.506
-66.753
-67.021
-67.31
-67.618
-67.945
-68.291
-68.653
-69.03
-69.422
-69.826
-70.24
-70.664
-71.094
-71.53
-71.969
-72.409
-72.849
-73.288
-73.723
-74.152
-74.575
-74.99
-75.394
-75.787
-76.168
-76.534
-76.885
-77.219
-77.535
-77.834
-78.112
-78.371
-78.61
-78.827
-79.023
-79.197
-79.35
-79.481
-79.592
-79.681
-79.751
-79.801
-79.832
-79.845
-79.842
-79.823
-79.789
-79.742
-79.683
-79.612
-79.532
-79.443
-79.347
-79.246
-79.14
-79.031
-78.921
-78.812
-78.705
-78.601
-78.504
-78.413
-78.331
-78.26
-78.202
-78.157
-78.129
-78.117
-78.123
-78.15
-78.197
-78.266
-78.357
-78.472
-78.611
-78.775
-78.963
-79.176
-79.414
-79.676
-79.962
-80.272
-80.605
-80.96
-81.336
-81.73
-82.143
-82.57
-83.011
-83.463
-83.923
-84.387
-84.852
-85.314
-85.77
-86.215
-86.644
-87.053
-87.438
-87.793
-88.114
-88.396
-88.634
-88.823
-88.959
-89.036
-89.051
-88.998
-88.873
-88.67
-88.387
-88.02
-87.563
-87.015
-86.371
-85.63
-84.788
-83.845
-82.798
-81.646
-80.39
-79.029
-77.565
-76
-74.336
-72.576
-70.723
-68.784
-66.763
-64.666
-62.501
-60.273
-57.991
-55.662
-53.298
-50.905
-48.49
-46.063
-43.634
-41.219
-38.838
-36.502
-34.223
-32.028
-29.941
-27.986
-26.188
-24.552
-23.076
-21.782
-20.702
-19.806
-19.057
-18.495
-18.128
-17.95
-18.076
-18.216
-18.086
-18.085
-18.329
-19.555
-22.649
-26.633
-30.853
-34.336
-35.742
-36.242
-36.823
-38.155
-41.343
-45.551
-49.93
-54.265
-58.025
-61.467
-64.927
-68.293
-71.57
-74.668
-77.443
-79.901
-82.068
-83.961
-85.645
-87.176
-88.592
-89.965
-91.398
-92.936
-94.568
-96.21
-97.681
-98.877
-99.806
-100.409
-100.613
-100.434
-99.826
-98.819
-97.613
-96.19
-94.755
-94.005
-94.327
-96.032
-98.531
-99.875
-99.221
-96.645
-93.862
-94.644
-100.507
-111.301
-125.27
-137.977
-146.401
-147.32
-136.535
-110.981
-66.982
-3.935
74.924
164.446
256.731
346.374
430.137
505.213
571.748
628.295
673.096
707.263
730.508
742.611
743.092
726.687
687.869
623.963
534.466
425.789
309.095
195.25
95.051
15.795
-39.769
-71.5
-81.521
-74.31
-56.242
-33.813
-14.473
-3.622
-1.643
-6.667
-13.776
-17.645
-17.049
-12.756
-7.193
-3.643
-2.956
-4.497
-7.302
-9.982
-12.027
-13.625
-14.863
-15.798
-16.354
-16.444
-16.125
-15.567
-14.927
-14.308
-13.8
-13.517
-13.606
-14.109
-14.958
-16.023
-17.133
-18.134
-18.894
-19.282
-19.168
-18.483
-17.222
-15.407
-13.096
-10.345
-7.199
-3.716
0.046
4.034
8.205
12.517
16.933
21.412
25.911
30.4
34.859
39.279
43.657
47.995
52.298
56.575
60.839
65.104
69.38
73.676
78.003
82.372
86.796
91.289
95.864
100.53
105.294
110.159
115.128
120.204
125.389
130.687
136.094
141.604
147.213
152.91
158.681
164.506
170.357
176.202
182.018
187.786
193.49
199.123
204.673
210.127
215.478
220.704
225.788
230.717
235.47
240.03
244.397
248.574
252.585
256.457
260.193
263.782
267.203
270.415
273.379
276.051
278.374
280.309
281.828
282.906
283.529
283.68
283.313
282.375
280.793
278.481
275.392
271.506
266.814
261.337
255.108
248.171
240.596
232.434
223.715
214.461
204.689
194.429
183.749
172.741
161.512
150.2
138.912
127.731
116.735
105.975
95.489
85.303
75.423
65.872
56.696
47.96
39.723
32.033
24.896
18.299
12.206
6.554
1.289
-3.628
-8.236
-12.554
-16.592
-20.355
-23.841
-27.053
-30.018
-32.783
-35.388
-37.87
-40.244
-42.51
-44.655
-46.649
-48.465
-50.084
-51.489
-52.678
-53.658
-54.439
-55.038
-55.471
-55.748
-55.866
-55.826
-55.628
-55.282
-54.806
-54.22
-53.556
-52.842
-52.107
-51.375
-50.664
-49.987
-49.356
-48.775
-48.248
-47.777
-47.37
-47.032
-46.77
-46.589
-46.488
-46.469
-46.528
-46.662
-46.867
-47.138
-47.471
-47.863
-48.311
-48.813
-49.369
-49.976
-50.632
-51.334
-52.078
-52.86
-53.676
-54.52
-55.389
-56.277
-57.181
-58.096
-59.018
-59.945
-60.873
-61.798
-62.717
-63.627
-64.526
-65.411
-66.281
-67.134
-67.967
-68.78
-69.573
-70.343
-71.09
-71.814
-72.514
-73.19
-73.843
-74.472
-75.078
-75.66
-76.218
-76.755
-77.269
-77.761
-78.233
-78.685
-79.119
-79.534
-79.934
-80.318
-80.688
-81.044
-81.389
-81.722
-82.045
-82.359
-82.664
-82.962
-83.253
-83.538
-83.818
-84.094
-84.365
-84.632
-84.897
-85.158
-85.417
-85.674
-85.929
-86.181
-86.431
-86.679
-86.924
-87.167
-87.407
-87.644
-87.878
-88.109
-88.336
-88.558
-88.776
-88.989
-89.197
-89.399
-89.594
-89.782
-89.964
-90.138
-90.305
-90.463
-90.614
-90.757
-90.892
-91.019
-91.139
-91.252
-91.359
-91.46
-91.556
-91.648
-91.737
-91.826
-91.914
-92.004
-92.097
-92.194
-92.298
-92.41
-92.531
-92.662
-92.806
-92.964
-93.138
-93.327
-93.535
-93.761
-94.007
-94.274
-94.562
-94.871
-95.201
-95.553
-95.925
-96.317
-96.729
-97.158
-97.603
-98.062
-98.532
-99.011
-99.494
-99.979
-100.461
-100.935
-101.396
-101.84
-102.261
-102.654
-103.013
-103.333
-103.608
-103.832
-103.999
-104.104
-104.141
-104.104
-103.989
-103.788
-103.499
-103.115
-102.634
-102.05
-101.361
-100.564
-99.656
-98.635
-97.5
-96.249
-94.883
-93.402
-91.807
-90.102
-88.289
-86.372
-84.356
-82.247
-80.051
-77.775
-75.426
-73.013
-70.545
-68.032
-65.483
-62.91
-60.325
-57.739
-55.168
-52.627
-50.131
-47.698
-45.343
-43.086
-40.944
-38.935
-37.075
-35.379
-33.861
-32.534
-31.413
-30.51
-29.835
-29.398
-29.207
-29.265
-29.576
-30.138
-30.947
-31.995
-33.273
-34.773
-36.494
-38.433
-40.586
-42.953
-45.528
-48.304
-51.267
-54.4
-57.674
-61.063
-64.54
-68.08
-71.658
-75.242
-78.799
-82.289
-85.669
-88.885
-91.865
-94.554
-96.918
-98.96
-100.75
-102.37
-103.899
-105.451
-107.16
-109.103
-111.323
-113.766
-116.183
-118.35
-120.071
-121.083
-121.178
-120.222
-118.071
-114.782
-110.731
-106.286
-101.874
-98.095
-95.408
-94.279
-95.356
-99.057
-105.461
-114.608
-125.883
-137.904
-149.396
-158.753
-164.951
-168.229
-168.361
-164.481
-153.737
-131.164
-92.258
-33.728
43.848
136.551
239.247
344.615
446.455
539.433
617.92
679.919
724.765
751.976
762.71
754.951
724.766
670.054
589.273
486.262
370.483
252.304
143.688
53.033
-16.706
-64.952
-95.012
-109.979
-111.735
-103.681
-88.743
-71.838
-58.806
-52.089
-52.157
-56.225
-59.528
-60.072
-57.646
-53.67
-50.996
-50.59
-52
-54.446
-56.555
-57.705
-58.023
-57.595
-56.538
-54.873
-52.594
-49.815
-46.758
-43.644
-40.626
-37.828
-35.382
-33.423
-32.004
-31.091
-30.602
-30.435
-30.479
-30.613
-30.718
-30.663
-30.364
-29.791
-28.915
-27.707
-26.16
-24.275
-22.073
-19.602
-16.882
-13.916
-10.702
-7.224
-3.485
0.488
4.684
9.097
13.714
18.518
23.476
28.526
33.635
38.787
43.969
49.182
54.421
59.672
64.927
70.183
75.439
80.697
85.955
91.206
96.453
101.705
106.977
112.29
117.66
123.093
128.596
134.173
139.82
145.53
151.284
157.061
162.844
168.617
174.359
180.045
185.653
191.164
196.568
201.855
207.005
211.993
216.781
221.338
225.641
229.68
233.454
236.953
240.163
243.073
245.685
248.008
250.037
251.744
253.083
254.008
254.503
254.563
254.203
253.424
252.214
250.549
248.4
245.752
242.582
238.868
234.579
229.673
224.141
218.004
211.318
204.124
196.438
188.258
179.571
170.392
160.753
150.705
140.308
129.626
118.745
107.753
96.744
85.815
75.033
64.439
54.05
43.9
34.043
24.547
15.493
6.936
-1.089
-8.564
-15.487
-21.875
-27.774
-33.229
-38.29
-43.001
-47.384
-51.449
-55.201
-58.648
-61.813
-64.731
-67.452
-70.01
-72.436
-74.746
-76.946
-79.023
-80.947
-82.689
-84.227
-85.543
-86.637
-87.514
-88.183
-88.656
-88.946
-89.059
-88.992
-88.748
-88.327
-87.737
-86.994
-86.121
-85.15
-84.109
-83.028
-81.929
-80.829
-79.741
-78.675
-77.638
-76.631
-75.658
-74.725
-73.839
-73.008
-72.235
-71.523
-70.872
-70.28
-69.745
-69.262
-68.828
-68.441
-68.097
-67.795
-67.535
-67.316
-67.138
-66.999
-66.898
-66.832
-66.798
-66.793
-66.815
-66.858
-66.921
-67.001
-67.096
-67.203
-67.321
-67.448
-67.583
-67.723
-67.868
-68.017
-68.168
-68.321
-68.474
-68.628
-68.781
-68.935
-69.088
-69.241
-69.393
-69.545
-69.698
-69.85
-70.004
-70.158
-70.313
-70.47
-70.628
-70.787
-70.947
-71.109
-71.273
-71.439
-71.606
-71.774
-71.944
-72.114
-72.285
-72.454
-72.623
-72.789
-72.953
-73.114
-73.272
-73.425
-73.574
-73.718
-73.857
-73.991
-74.121
-74.245
-74.365
-74.48
-74.59
-74.697
-74.8
-74.901
-74.999
-75.097
-75.194
-75.291
-75.391
-75.495
-75.603
-75.717
-75.839
-75.97
-76.112
-76.267
-76.437
-76.623
-76.827
-77.051
-77.296
-77.562
-77.852
-78.165
-78.501
-78.862
-79.246
-79.654
-80.083
-80.534
-81.004
-81.492
-81.995
-82.512
-83.038
-83.572
-84.109
-84.646
-85.178
-85.702
-86.213
-86.707
-87.178
-87.622
-88.033
-88.407
-88.737
-89.018
-89.245
-89.412
-89.513
-89.542
-89.494
-89.366
-89.151
-88.846
-88.447
-87.951
-87.354
-86.655
-85.851
-84.941
-83.925
-82.802
-81.573
-80.24
-78.805
-77.271
-75.64
-73.918
-72.109
-70.219
-68.252
-66.217
-64.119
-61.968
-59.771
-57.538
-55.28
-53.007
-50.734
-48.475
-46.245
-44.061
-41.938
-39.896
-37.951
-36.12
-34.417
-32.858
-31.453
-30.217
-29.162
-28.303
-27.648
-27.208
-26.988
-26.994
-27.228
-27.69
-28.376
-29.277
-30.386
-31.699
-33.219
-34.951
-36.897
-39.058
-41.429
-44.003
-46.768
-49.707
-52.795
-56.007
-59.315
-62.689
-66.105
-69.534
-72.943
-76.297
-79.535
-82.575
-85.361
-87.855
-90.055
-92.035
-93.868
-95.605
-97.353
-99.233
-101.307
-103.615
-106.083
-108.42
-110.356
-111.719
-112.326
-112.08
-111
-109.031
-106.261
-103.193
-100.343
-98.042
-96.684
-96.477
-97.402
-100.07
-105.038
-111.773
-119.991
-128.745
-136.426
-143.041
-148.137
-151.082
-152.459
-151.943
-149.28
-143.698
-131.598
-107.92
-67.331
-6.32
73.835
167.715
267.618
365.424
455.255
533.79
599.234
651.865
693.109
723.552
742.816
747.245
729.581
683.224
604.545
497.019
372.305
245.515
132
41.217
-25.295
-69.986
-98.631
-114.791
-118.074
-109.699
-91.091
-66.867
-45.569
-31.682
-26.64
-28.223
-30.096
-29.247
-25.498
-20.292
-17.314
-17.953
-21.362
-26.474
-31.536
-35.402
-38.341
-40.613
-41.719
-41.619
-39.712
-34.907
-28.346
-21.479
-15.704
-13.502
-14.717
-17.293
-19.782
-19.856
-16.848
-12.708
-8.538
-5.444
-4.173
-3.485
-2.651
-1.488
0.421
2.652
4.836
7.044
9.186
11.293
13.487
15.751
18.05
20.387
22.743
25.102
27.498
29.989
32.612
35.404
38.393
41.591
45.023
48.705
52.629
56.762
61.059
65.482
70.02
74.668
79.422
84.274
89.206
94.204
99.266
104.391
109.571
114.796
120.049
125.319
130.605
135.909
141.228
146.552
151.867
157.167
162.449
167.712
172.946
178.139
183.267
188.323
193.307
198.213
203.033
207.757
212.381
216.915
221.391
225.832
230.242
234.599
238.864
243
246.97
250.737
254.255
257.453
260.26
262.628
264.522
265.915
266.762
266.986
266.481
265.164
262.988
259.941
256.036
251.29
245.723
239.369
232.289
224.578
216.321
207.573
198.366
188.724
178.704
168.407
157.972
147.515
137.121
126.847
116.737
106.836
97.191
87.828
78.749
69.925
61.349
53.044
45.061
37.459
30.263
23.453
16.975
10.794
4.894
-0.729
-6.076
-11.161
-15.998
-20.585
-24.9
-28.91
-32.604
-35.992
-39.111
-42.003
-44.688
-47.158
-49.387
-51.364
-53.087
-54.559
-55.785
-56.758
-57.475
-57.95
-58.209
-58.282
-58.189
-57.936
-57.523
-56.947
-56.216
-55.352
-54.379
-53.318
-52.189
-51.006
-49.789
-48.561
-47.34
-46.137
-44.953
-43.793
-42.662
-41.568
-40.522
-39.531
-38.599
-37.729
-36.923
-36.18
-35.503
-34.891
-34.341
-33.849
-33.415
-33.036
-32.713
-32.446
-32.234
-32.073
-31.962
-31.898
-31.879
-31.903
-31.964
-32.06
-32.188
-32.343
-32.524
-32.727
-32.95
-33.19
-33.445
-33.711
-33.987
-34.271
-34.562
-34.857
-35.156
-35.458
-35.762
-36.068
-36.374
-36.68
-36.987
-37.294
-37.601
-37.908
-38.216
-38.524
-38.832
-39.142
-39.452
-39.764
-40.078
-40.394
-40.713
-41.037
-41.364
-41.697
-42.036
-42.381
-42.733
-43.092
-43.458
-43.832
-44.214
-44.603
-45
-45.404
-45.815
-46.233
-46.658
-47.088
-47.523
-47.964
-48.409
-48.857
-49.308
-49.762
-50.217
-50.673
-51.13
-51.586
-52.042
-52.495
-52.945
-53.391
-53.832
-54.268
-54.696
-55.117
-55.528
-55.93
-56.321
-56.7
-57.066
-57.419
-57.759
-58.084
-58.395
-58.692
-58.973
-59.24
-59.493
-59.732
-59.957
-60.168
-60.368
-60.556
-60.734
-60.903
-61.063
-61.217
-61.365
-61.51
-61.652
-61.794
-61.938
-62.085
-62.238
-62.399
-62.57
-62.753
-62.951
-63.165
-63.398
-63.652
-63.928
-64.229
-64.556
-64.91
-65.293
-65.706
-66.15
-66.624
-67.129
-67.665
-68.231
-68.826
-69.45
-70.1
-70.775
-71.471
-72.188
-72.921
-73.667
-74.421
-75.181
-75.941
-76.696
-77.441
-78.171
-78.882
-79.566
-80.219
-80.834
-81.407
-81.93
-82.398
-82.805
-83.144
-83.411
-83.598
-83.701
-83.715
-83.634
-83.455
-83.174
-82.787
-82.29
-81.683
-80.962
-80.126
-79.175
-78.11
-76.931
-75.64
-74.24
-72.735
-71.128
-69.424
-67.63
-65.752
-63.795
-61.769
-59.68
-57.539
-55.355
-53.138
-50.899
-48.651
-46.408
-44.187
-42.004
-39.875
-37.819
-35.854
-33.999
-32.272
-30.687
-29.259
-28.002
-26.929
-26.052
-25.384
-24.936
-24.715
-24.728
-24.977
-25.464
-26.187
-27.139
-28.31
-29.691
-31.278
-33.072
-35.076
-37.293
-39.721
-42.357
-45.19
-48.212
-51.405
-54.74
-58.195
-61.741
-65.347
-68.988
-72.634
-76.247
-79.788
-83.19
-86.365
-89.253
-91.814
-94.052
-96.044
-97.861
-99.563
-101.27
-103.109
-105.157
-107.445
-109.83
-111.986
-113.629
-114.517
-114.413
-113.163
-110.659
-106.842
-101.994
-96.723
-91.537
-87.016
-83.8
-82.225
-83.013
-86.94
-93.786
-103.252
-114.402
-125.426
-135.586
-144.157
-150.686
-155.896
-159.712
-161.393
-158.727
-147.422
-122.759
-80.452
-19.302
58.184
147.136
240.211
330.931
415.246
489.786
553.404
605.973
646.343
675.242
694.317
703.974
704.484
692.63
661.497
605.663
522.511
415.775
296.579
178.003
72.359
-12.115
-72.526
-108.972
-123.444
-119.061
-100.915
-76.101
-52.855
-38.429
-35.228
-41.15
-50.786
-57.844
-59.868
-57.602
-53.657
-51.577
-52.419
-55.386
-59.358
-62.761
-64.918
-65.992
-66.027
-65.075
-63.302
-60.834
-57.822
-54.543
-51.214
-47.95
-44.957
-42.475
-40.564
-39.19
-38.28
-37.672
-37.253
-36.979
-36.731
-36.385
-35.885
-35.192
-34.321
-33.327
-32.226
-31.012
-29.684
-28.211
-26.583
-24.808
-22.876
-20.785
-18.521
-16.055
-13.383
-10.508
-7.424
-4.133
-0.631
3.1
7.05
11.198
15.518
19.961
24.497
29.118
33.805
38.548
43.335
48.141
52.959
57.792
62.638
67.497
72.368
77.247
82.143
87.077
92.061
97.111
102.233
107.413
112.643
117.912
123.197
128.483
133.755
138.995
144.202
149.374
154.503
159.574
164.558
169.424
174.153
178.731
183.145
187.396
191.483
195.407
199.189
202.836
206.335
209.658
212.749
215.539
217.982
220.04
221.686
222.901
223.655
223.915
223.658
222.852
221.463
219.453
216.761
213.345
209.201
204.348
198.839
192.755
186.152
179.081
171.594
163.732
155.542
147.075
138.367
129.46
120.407
111.27
102.132
93.07
84.127
75.333
66.69
58.184
49.815
41.588
33.501
25.566
17.792
10.192
2.792
-4.384
-11.321
-18.015
-24.472
-30.699
-36.691
-42.438
-47.922
-53.118
-58.009
-62.582
-66.82
-70.715
-74.263
-77.466
-80.334
-82.881
-85.119
-87.057
-88.703
-90.065
-91.155
-91.986
-92.574
-92.935
-93.086
-93.045
-92.831
-92.462
-91.957
-91.33
-90.595
-89.766
-88.855
-87.877
-86.842
-85.764
-84.656
-83.528
-82.394
-81.265
-80.15
-79.058
-77.999
-76.979
-76.004
-75.08
-74.211
-73.401
-72.651
-71.965
-71.344
-70.789
-70.299
-69.874
-69.513
-69.215
-68.977
-68.797
-68.673
-68.601
-68.578
-68.6
-68.665
-68.768
-68.906
-69.075
-69.271
-69.492
-69.733
-69.991
-70.261
-70.54
-70.825
-71.113
-71.399
-71.682
-71.958
-72.226
-72.484
-72.729
-72.961
-73.178
-73.38
-73.566
-73.735
-73.888
-74.023
-74.143
-74.246
-74.334
-74.407
-74.467
-74.513
-74.548
-74.573
-74.587
-74.594
-74.593
-74.586
-74.575
-74.56
-74.544
-74.527
-74.51
-74.496
-74.486
-74.48
-74.481
-74.489
-74.505
-74.531
-74.567
-74.614
-74.673
-74.743
-74.826
-74.921
-75.029
-75.148
-75.28
-75.423
-75.577
-75.741
-75.915
-76.098
-76.288
-76.486
-76.689
-76.897
-77.109
-77.323
-77.539
-77.754
-77.969
-78.181
-78.39
-78.593
-78.79
-78.978
-79.157
-79.326
-79.482
-79.625
-79.754
-79.867
-79.964
-80.044
-80.107
-80.152
-80.18
-80.19
-80.182
-80.158
-80.117
-80.062
-79.992
-79.909
-79.814
-79.709
-79.596
-79.476
-79.351
-79.222
-79.092
-78.962
-78.834
-78.71
-78.593
-78.483
-78.384
-78.296
-78.223
-78.165
-78.125
-78.103
-78.103
-78.123
-78.166
-78.233
-78.323
-78.436
-78.572
-78.731
-78.912
-79.113
-79.332
-79.567
-79.816
-80.075
-80.341
-80.611
-80.88
-81.144
-81.399
-81.641
-81.865
-82.066
-82.239
-82.38
-82.484
-82.546
-82.56
-82.521
-82.425
-82.265
-82.037
-81.735
-81.356
-80.894
-80.346
-79.707
-78.975
-78.145
-77.216
-76.185
-75.051
-73.813
-72.471
-71.024
-69.475
-67.825
-66.078
-64.237
-62.305
-60.287
-58.189
-56.016
-53.773
-51.468
-49.109
-46.703
-44.258
-41.784
-39.291
-36.791
-34.297
-31.825
-29.388
-27.004
-24.688
-22.459
-20.333
-18.328
-16.459
-14.737
-13.178
-11.794
-10.599
-9.606
-8.825
-8.264
-7.931
-7.83
-7.965
-8.334
-8.932
-9.753
-10.791
-12.043
-13.514
-15.21
-17.134
-19.285
-21.662
-24.253
-27.049
-30.032
-33.174
-36.449
-39.826
-43.27
-46.758
-50.257
-53.73
-57.142
-60.424
-63.488
-66.28
-68.762
-70.936
-72.874
-74.636
-76.27
-77.89
-79.634
-81.585
-83.788
-86.143
-88.369
-90.231
-91.557
-92.157
-91.88
-90.627
-88.334
-85.165
-81.599
-78.102
-75.119
-73.115
-72.49
-73.629
-76.892
-82.472
-90.217
-99.858
-111.039
-122.632
-132.882
-140.174
-142.878
-140.849
-135.692
-127.387
-114.427
-92.946
-56.499
-2.077
69.319
153.038
240.918
327.058
408.603
484.136
553.19
613.859
663.025
699.18
723.303
737.185
741.922
734.961
709.376
658.481
579.076
474.61
355.669
235.815
127.833
39.614
-25.596
-68.02
-90.487
-94.678
-83.902
-63.86
-40.17
-20.624
-10.922
-11.113
-19.133
-29.808
-37.004
-39.255
-36.817
-31.309
-26.794
-24.59
-24.666
-27.165
-30.189
-32.675
-34.57
-35.295
-35.051
-34.205
-32.68
-30.608
-28.119
-25.259
-22.217
-19.276
-16.703
-14.614
-13.005
-11.813
-10.907
-10.204
-9.651
-9.125
-8.489
-7.668
-6.632
-5.4
-4.018
-2.503
-0.837
1
3.011
5.188
7.512
9.979
12.597
15.385
18.366
21.547
24.923
28.498
32.274
36.261
40.46
44.853
49.406
54.073
58.822
63.638
68.516
73.449
78.428
83.437
88.463
93.502
98.555
103.619
108.693
113.771
118.861
123.974
129.131
134.35
139.64
144.993
150.395
155.828
161.27
166.704
172.113
177.479
182.796
188.057
193.26
198.396
203.443
208.377
213.177
217.822
222.296
226.598
230.733
234.711
238.551
242.261
245.834
249.248
252.462
255.422
258.065
260.339
262.207
263.634
264.594
265.056
264.994
264.372
263.149
261.277
258.697
255.369
251.273
246.417
240.837
234.588
227.749
220.389
212.57
204.349
195.774
186.893
177.752
168.405
158.906
149.325
139.743
130.231
120.852
111.645
102.632
93.816
85.184
76.728
68.443
60.33
52.402
44.671
37.154
29.867
22.827
16.041
9.507
3.221
-2.821
-8.614
-14.146
-19.402
-24.359
-28.997
-33.301
-37.26
-40.87
-44.133
-47.055
-49.648
-51.926
-53.903
-55.59
-56.999
-58.142
-59.03
-59.681
-60.112
-60.341
-60.389
-60.276
-60.021
-59.644
-59.16
-58.586
-57.937
-57.224
-56.46
-55.658
-54.828
-53.984
-53.136
-52.295
-51.472
-50.676
-49.914
-49.195
-48.525
-47.908
-47.347
-46.847
-46.408
-46.033
-45.721
-45.473
-45.286
-45.161
-45.094
-45.083
-45.125
-45.216
-45.352
-45.529
-45.744
-45.99
-46.265
-46.562
-46.879
-47.211
-47.553
-47.903
-48.255
-48.607
-48.956
-49.297
-49.628
-49.945
-50.247
-50.531
-50.795
-51.037
-51.257
-51.453
-51.626
-51.775
-51.9
-52.003
-52.084
-52.143
-52.184
-52.206
-52.212
-52.204
-52.183
-52.153
-52.115
-52.071
-52.024
-51.976
-51.93
-51.886
-51.847
-51.815
-51.792
-51.779
-51.777
-51.789
-51.814
-51.854
-51.911
-51.984
-52.075
-52.184
-52.311
-52.456
-52.619
-52.8
-52.998
-53.214
-53.445
-53.693
-53.955
-54.232
-54.521
-54.822
-55.134
-55.455
-55.786
-56.124
-56.47
-56.822
-57.179
-57.542
-57.909
-58.282
-58.659
-59.042
-59.429
-59.823
-60.223
-60.629
-61.043
-61.466
-61.898
-62.341
-62.794
-63.26
-63.74
-64.233
-64.743
-65.268
-65.811
-66.373
-66.953
-67.553
-68.173
-68.813
-69.474
-70.154
-70.855
-71.574
-72.312
-73.066
-73.836
-74.618
-75.411
-76.212
-77.018
-77.824
-78.628
-79.425
-80.21
-80.979
-81.728
-82.451
-83.144
-83.802
-84.419
-84.99
-85.511
-85.976
-86.38
-86.717
-86.983
-87.173
-87.283
-87.309
-87.246
-87.092
-86.844
-86.498
-86.053
-85.506
-84.858
-84.107
-83.253
-82.298
-81.242
-80.089
-78.841
-77.502
-76.076
-74.569
-72.987
-71.335
-69.62
-67.85
-66.032
-64.175
-62.288
-60.38
-58.462
-56.544
-54.64
-52.764
-50.93
-49.153
-47.45
-45.834
-44.325
-42.936
-41.682
-40.576
-39.631
-38.857
-38.268
-37.874
-37.687
-37.714
-37.963
-38.437
-39.139
-40.068
-41.22
-42.588
-44.163
-45.941
-47.922
-50.106
-52.493
-55.081
-57.867
-60.845
-63.999
-67.312
-70.754
-74.297
-77.915
-81.579
-85.262
-88.932
-92.551
-96.076
-99.464
-102.659
-105.592
-108.216
-110.504
-112.47
-114.198
-115.771
-117.257
-118.76
-120.393
-122.212
-124.261
-126.476
-128.614
-130.5
-132.032
-133.054
-133.483
-133.28
-132.333
-130.733
-128.9
-127.072
-125.397
-124.212
-123.615
-124.004
-126.441
-131.142
-137.608
-145.152
-151.755
-156.347
-159.581
-161.773
-164.51
-168.824
-173.263
-175.9
-172.328
-156.526
-123.138
-67.654
10.392
107.485
216.504
327.667
432.54
524.058
598.234
655.131
695.322
719.729
728.584
718.771
686.724
630.387
549.12
447.656
335.016
221.428
118.288
33.374
-30.727
-74.956
-103.502
-120.295
-127.603
-126.645
-118.517
-106.024
-92.483
-80.722
-72.028
-64.963
-57.977
-50.634
-43.456
-38.279
-36.38
-37.527
-40.795
-44.971
-49.105
-52.769
-55.771
-57.885
-58.849
-58.671
-57.558
-55.741
-53.544
-51.265
-49.112
-47.37
-46.311
-45.992
-46.339
-47.202
-48.349
-49.566
-50.671
-51.465
-51.771
-51.499
-50.63
-49.185
-47.22
-44.79
-41.94
-38.727
-35.21
-31.434
-27.44
-23.269
-18.959
-14.556
-10.112
-5.664
-1.234
3.16
7.513
11.824
16.097
20.341
24.575
28.811
33.06
37.332
41.636
45.985
50.394
54.876
59.441
64.1
68.859
73.73
78.722
83.84
89.081
94.44
99.908
105.475
111.129
116.852
122.616
128.394
134.157
139.888
145.581
151.223
156.801
162.298
167.696
172.987
178.178
183.269
188.255
193.134
197.902
202.575
207.188
211.765
216.318
220.842
225.303
229.673
233.924
238.016
241.902
245.515
248.765
251.58
253.908
255.694
256.886
257.416
257.184
256.12
254.175
251.324
247.571
242.926
237.395
231.019
223.86
216.001
207.557
198.619
189.256
179.542
169.548
159.364
149.1
138.847
128.67
118.628
108.763
99.116
89.732
80.628
71.8
63.23
54.881
46.738
38.803
31.074
23.553
16.236
9.105
2.159
-4.59
-11.135
-17.466
-23.577
-29.469
-35.128
-40.531
-45.652
-50.464
-54.951
-59.106
-62.924
-66.405
-69.548
-72.357
-74.842
-77.019
-78.902
-80.505
-81.838
-82.915
-83.751
-84.364
-84.774
-85.001
-85.061
-84.972
-84.75
-84.41
-83.969
-83.439
-82.832
-82.157
-81.427
-80.652
-79.845
-79.015
-78.174
-77.33
-76.492
-75.669
-74.869
-74.098
-73.36
-72.659
-72
-71.384
-70.814
-70.291
-69.816
-69.389
-69.01
-68.678
-68.391
-68.148
-67.948
-67.788
-67.665
-67.578
-67.523
-67.498
-67.5
-67.526
-67.575
-67.643
-67.727
-67.825
-67.935
-68.053
-68.177
-68.306
-68.435
-68.565
-68.691
-68.814
-68.93
-69.04
-69.142
-69.235
-69.318
-69.392
-69.455
-69.508
-69.549
-69.58
-69.6
-69.609
-69.608
-69.596
-69.573
-69.54
-69.497
-69.443
-69.38
-69.307
-69.224
-69.132
-69.03
-68.919
-68.798
-68.667
-68.528
-68.379
-68.22
-68.052
-67.875
-67.69
-67.495
-67.292
-67.08
-66.86
-66.633
-66.399
-66.159
-65.912
-65.661
-65.405
-65.146
-64.885
-64.623
-64.361
-64.102
-63.845
-63.594
-63.35
-63.115
-62.89
-62.677
-62.478
-62.295
-62.129
-61.984
-61.859
-61.757
-61.68
-61.628
-61.604
-61.607
-61.64
-61.702
-61.794
-61.916
-62.069
-62.25
-62.46
-62.698
-62.962
-63.251
-63.563
-63.896
-64.246
-64.611
-64.987
-65.37
-65.756
-66.141
-66.519
-66.887
-67.239
-67.57
-67.875
-68.149
-68.386
-68.581
-68.728
-68.822
-68.858
-68.83
-68.733
-68.562
-68.313
-67.982
-67.564
-67.056
-66.456
-65.76
-64.966
-64.072
-63.077
-61.98
-60.781
-59.481
-58.08
-56.582
-54.988
-53.302
-51.528
-49.671
-47.736
-45.73
-43.659
-41.53
-39.351
-37.131
-34.878
-32.602
-30.314
-28.024
-25.748
-23.498
-21.291
-19.142
-17.067
-15.083
-13.207
-11.456
-9.844
-8.383
-7.086
-5.966
-5.035
-4.306
-3.789
-3.49
-3.417
-3.574
-3.962
-4.582
-5.427
-6.49
-7.763
-9.241
-10.928
-12.828
-14.942
-17.27
-19.81
-22.552
-25.488
-28.604
-31.875
-35.281
-38.793
-42.381
-46.019
-49.676
-53.315
-56.901
-60.373
-63.642
-66.655
-69.379
-71.815
-74.035
-76.103
-78.052
-79.974
-81.991
-84.154
-86.483
-88.872
-91.019
-92.685
-93.723
-93.961
-93.292
-91.695
-89.16
-85.886
-82.394
-79.157
-76.581
-75.092
-74.982
-76.508
-79.971
-85.504
-92.94
-102.039
-112.532
-123.654
-134.05
-142.205
-146.487
-146.223
-142.675
-136.842
-128.076
-113.458
-86.624
-41.571
23.409
105.799
198.361
292.267
381.817
463.571
535.802
598.057
648.359
685.341
709.427
720.423
718.491
701.441
664.297
604.461
521.581
420.643
311.798
204.737
108.912
29.841
-30.719
-71.739
-94.815
-101.113
-92.877
-75.35
-53.615
-34.048
-22.067
-18.726
-23.019
-31.864
-40.425
-45.924
-47.425
-44.795
-40.456
-37.068
-35.833
-37.798
-42.057
-46.419
-49.733
-51.055
-50.294
-48.379
-45.727
-42.55
-39.138
-35.571
-32.124
-29.217
-26.998
-25.433
-24.445
-23.893
-23.643
-23.609
-23.668
-23.643
-23.437
-23.026
-22.414
-21.635
-20.706
-19.602
-18.294
-16.785
-15.079
-13.188
-11.135
-8.914
-6.52
-3.95
-1.188
1.767
4.912
8.256
11.808
15.568
19.527
23.656
27.903
32.239
36.645
41.112
45.64
50.226
54.857
59.529
64.236
68.975
73.746
78.543
83.356
88.186
93.037
97.922
102.866
107.882
112.974
118.144
123.385
128.69
134.052
139.457
144.884
150.316
155.732
161.115
166.446
171.705
176.866
181.902
186.784
191.482
195.97
200.222
204.21
207.91
211.298
214.353
217.055
219.387
221.33
222.865
223.977
224.65
224.871
224.631
223.919
222.728
221.055
218.897
216.257
213.137
209.544
205.486
200.973
196.018
190.637
184.847
178.668
172.12
165.228
158.016
150.51
142.738
134.729
126.513
118.119
109.579
100.923
92.182
83.387
74.569
65.758
56.984
48.275
39.661
31.167
22.821
14.646
6.667
-1.095
-8.621
-15.891
-22.889
-29.602
-36.015
-42.119
-47.903
-53.362
-58.489
-63.282
-67.738
-71.857
-75.641
-79.094
-82.219
-85.024
-87.515
-89.702
-91.593
-93.2
-94.534
-95.607
-96.433
-97.023
-97.393
-97.556
-97.527
-97.32
-96.949
-96.43
-95.777
-95.002
-94.121
-93.147
-92.092
-90.968
-89.788
-88.563
-87.303
-86.018
-84.717
-83.41
-82.104
-80.806
-79.523
-78.261
-77.025
-75.819
-74.648
-73.516
-72.424
-71.375
-70.372
-69.416
-68.508
-67.648
-66.837
-66.074
-65.36
-64.694
-64.074
-63.501
-62.971
-62.485
-62.04
-61.636
-61.269
-60.939
-60.644
-60.382
-60.151
-59.949
-59.776
-59.628
-59.506
-59.406
-59.329
-59.271
-59.233
-59.213
-59.21
-59.222
-59.249
-59.289
-59.341
-59.405
-59.479
-59.563
-59.657
-59.758
-59.868
-59.984
-60.107
-60.237
-60.373
-60.514
-60.66
-60.812
-60.969
-61.131
-61.298
-61.47
-61.647
-61.829
-62.016
-62.208
-62.406
-62.608
-62.816
-63.029
-63.247
-63.471
-63.701
-63.936
-64.177
-64.423
-64.676
-64.935
-65.199
-65.47
-65.746
-66.029
-66.317
-66.611
-66.91
-67.214
-67.523
-67.836
-68.154
-68.474
-68.798
-69.123
-69.449
-69.777
-70.104
-70.43
-70.754
-71.077
-71.396
-71.711
-72.022
-72.328
-72.628
-72.921
-73.207
-73.484
-73.754
-74.015
-74.266
-74.508
-74.741
-74.964
-75.177
-75.381
-75.576
-75.761
-75.939
-76.108
-76.27
-76.426
-76.576
-76.722
-76.864
-77.004
-77.143
-77.282
-77.422
-77.564
-77.709
-77.858
-78.013
-78.174
-78.342
-78.517
-78.701
-78.894
-79.097
-79.309
-79.53
-79.761
-80.001
-80.249
-80.504
-80.765
-81.031
-81.3
-81.57
-81.839
-82.105
-82.365
-82.615
-82.853
-83.075
-83.277
-83.455
-83.605
-83.724
-83.807
-83.851
-83.85
-83.803
-83.703
-83.548
-83.334
-83.056
-82.711
-82.295
-81.805
-81.237
-80.59
-79.86
-79.045
-78.144
-77.156
-76.079
-74.912
-73.657
-72.313
-70.881
-69.363
-67.761
-66.079
-64.319
-62.485
-60.583
-58.618
-56.595
-54.521
-52.402
-50.246
-48.059
-45.851
-43.629
-41.401
-39.179
-36.972
-34.794
-32.657
-30.576
-28.564
-26.638
-24.813
-23.105
-21.528
-20.096
-18.819
-17.709
-16.779
-16.039
-15.501
-15.174
-15.064
-15.178
-15.518
-16.084
-16.875
-17.885
-19.103
-20.523
-22.139
-23.953
-25.968
-28.185
-30.603
-33.215
-36.013
-38.985
-42.116
-45.382
-48.76
-52.225
-55.746
-59.298
-62.851
-66.372
-69.824
-73.148
-76.261
-79.109
-81.666
-83.935
-85.984
-87.87
-89.619
-91.314
-93.067
-94.929
-96.911
-98.917
-100.691
-102.025
-102.824
-102.964
-102.339
-100.926
-98.7
-95.781
-92.552
-89.359
-86.448
-84.159
-82.793
-82.551
-83.829
-86.988
-92.094
-99.301
-108.347
-117.999
-126.996
-134.087
-138.506
-141.321
-143.491
-144.416
-141.57
-128.688
-98.651
-47.172
26.183
115.443
210.519
302.074
383.386
452.518
511.271
561.826
605.08
640.697
668.353
687.77
698.528
698.473
681.812
641.972
575.141
482.517
372.128
256.427
147.645
54.771
-16.879
-65.745
-93.027
-99.946
-89.971
-69.39
-44.442
-22.842
-10.765
-9.111
-16.449
-28.795
-40.214
-47.595
-50.002
-47.611
-43.431
-40.252
-39.075
-40.726
-44.234
-47.572
-49.942
-50.728
-49.815
-48.033
-45.77
-43.142
-40.362
-37.44
-34.464
-31.714
-29.425
-27.655
-26.371
-25.499
-24.91
-24.523
-24.288
-24.087
-23.789
-23.323
-22.661
-21.814
-20.82
-19.684
-18.382
-16.89
-15.198
-13.313
-11.249
-9.011
-6.592
-3.972
-1.131
1.933
5.213
8.708
12.419
16.353
20.507
24.861
29.377
34.01
38.727
43.513
48.359
53.26
58.207
63.185
68.183
73.199
78.232
83.28
88.342
93.416
98.507
103.628
108.794
114.024
119.331
124.712
130.156
135.647
141.153
146.655
152.136
157.58
162.977
168.318
173.59
178.785
183.894
188.901
193.797
198.564
203.18
207.639
211.947
216.122
220.203
224.205
228.118
231.928
235.607
239.12
242.433
245.496
248.247
250.643
252.653
254.25
255.418
256.119
256.292
255.867
254.755
252.893
250.249
246.799
242.535
237.472
231.642
225.094
217.905
210.118
201.744
192.807
183.332
173.372
163.013
152.35
141.493
130.556
119.645
108.859
98.287
87.986
77.989
68.321
58.991
50.04
41.546
33.567
26.146
19.31
13.06
7.382
2.255
-2.37
-6.567
-10.399
-13.918
-17.154
-20.112
-22.804
-25.244
-27.459
-29.503
-31.413
-33.219
-34.945
-36.612
-38.227
-39.795
-41.294
-42.675
-43.904
-44.963
-45.843
-46.554
-47.101
-47.486
-47.71
-47.776
-47.687
-47.452
-47.076
-46.562
-45.921
-45.169
-44.332
-43.451
-42.555
-41.666
-40.803
-39.976
-39.196
-38.475
-37.818
-37.226
-36.699
-36.239
-35.849
-35.533
-35.293
-35.125
-35.026
-34.988
-35.006
-35.075
-35.19
-35.347
-35.541
-35.769
-36.028
-36.318
-36.636
-36.98
-37.346
-37.73
-38.128
-38.537
-38.952
-39.371
-39.79
-40.205
-40.614
-41.016
-41.408
-41.789
-42.157
-42.513
-42.854
-43.182
-43.497
-43.797
-44.086
-44.362
-44.628
-44.884
-45.132
-45.374
-45.61
-45.843
-46.073
-46.303
-46.533
-46.765
-47
-47.239
-47.483
-47.733
-47.99
-48.255
-48.528
-48.811
-49.105
-49.408
-49.723
-50.049
-50.385
-50.731
-51.088
-51.454
-51.83
-52.213
-52.604
-53.002
-53.406
-53.814
-54.227
-54.642
-55.059
-55.476
-55.894
-56.31
-56.724
-57.135
-57.543
-57.947
-58.346
-58.74
-59.129
-59.512
-59.889
-60.261
-60.626
-60.986
-61.339
-61.687
-62.03
-62.367
-62.7
-63.027
-63.35
-63.669
-63.984
-64.295
-64.602
-64.905
-65.205
-65.502
-65.795
-66.086
-66.373
-66.657
-66.938
-67.216
-67.49
-67.761
-68.027
-68.289
-68.547
-68.799
-69.046
-69.287
-69.521
-69.749
-69.969
-70.181
-70.384
-70.578
-70.764
-70.939
-71.105
-71.261
-71.407
-71.544
-71.672
-71.791
-71.902
-72.006
-72.103
-72.194
-72.282
-72.365
-72.447
-72.528
-72.61
-72.693
-72.781
-72.874
-72.974
-73.082
-73.2
-73.33
-73.473
-73.63
-73.803
-73.994
-74.203
-74.431
-74.681
-74.952
-75.245
-75.56
-75.898
-76.259
-76.641
-77.045
-77.469
-77.911
-78.371
-78.847
-79.335
-79.834
-80.341
-80.852
-81.364
-81.873
-82.375
-82.866
-83.341
-83.796
-84.226
-84.627
-84.993
-85.321
-85.605
-85.84
-86.022
-86.147
-86.209
-86.203
-86.126
-85.973
-85.739
-85.422
-85.018
-84.524
-83.937
-83.255
-82.476
-81.6
-80.625
-79.551
-78.379
-77.108
-75.742
-74.282
-72.731
-71.094
-69.374
-67.576
-65.706
-63.769
-61.773
-59.723
-57.628
-55.495
-53.332
-51.149
-48.955
-46.761
-44.577
-42.418
-40.298
-38.231
-36.232
-34.317
-32.502
-30.804
-29.238
-27.817
-26.553
-25.457
-24.541
-23.817
-23.295
-22.985
-22.893
-23.022
-23.377
-23.957
-24.76
-25.781
-27.009
-28.436
-30.06
-31.881
-33.904
-36.129
-38.554
-41.174
-43.977
-46.952
-50.079
-53.332
-56.686
-60.11
-63.569
-67.037
-70.483
-73.868
-77.159
-80.289
-83.172
-85.757
-88.012
-89.943
-91.621
-93.1
-94.415
-95.666
-96.973
-98.397
-99.971
-101.601
-103.026
-104.055
-104.562
-104.388
-103.433
-101.655
-99.004
-95.62
-91.912
-88.226
-84.91
-82.403
-80.994
-80.948
-82.676
-86.457
-92.283
-100.222
-109.727
-119.32
-127.765
-133.764
-136.665
-137.606
-137.091
-133.766
-124.658
-103.953
-65.889
-8.951
65.057
150.329
238.253
323.363
402.368
473.319
536.734
591.291
634.789
667.153
688.946
701.547
705.911
698.68
673.037
622.775
544.865
443.309
329.019
214.762
112.183
28.541
-33.543
-73.632
-92.856
-93.238
-79.142
-57.551
-36.68
-23.905
-21.758
-28.167
-37.943
-44.913
-46.613
-43.805
-38.984
-35.655
-35.109
-36.753
-39.611
-42.277
-44.168
-45.424
-46.111
-46.281
-45.846
-44.73
-42.992
-40.763
-38.188
-35.394
-32.53
-29.803
-27.453
-25.582
-24.177
-23.187
-22.525
-22.141
-21.983
-21.926
-21.814
-21.557
-21.126
-20.524
-19.773
-18.857
-17.725
-16.367
-14.796
-13.034
-11.096
-8.973
-6.634
-4.046
-1.202
1.888
5.214
8.773
12.572
16.607
20.857
25.279
29.818
34.444
39.14
43.9
48.718
53.584
58.479
63.391
68.32
73.269
78.236
83.219
88.209
93.21
98.236
103.315
108.472
113.721
119.066
124.503
130.022
135.609
141.239
146.879
152.5
158.077
163.593
169.044
174.422
179.715
184.915
189.999
194.946
199.742
204.365
208.8
213.044
217.099
220.989
224.746
228.381
231.892
235.264
238.458
241.435
244.145
246.522
248.516
250.083
251.182
251.789
251.883
251.424
250.371
248.667
246.243
243.06
239.101
234.356
228.856
222.642
215.771
208.336
200.42
192.09
183.412
174.434
165.2
155.775
146.221
136.611
127.034
117.558
108.242
99.141
90.286
81.693
73.363
65.271
57.396
49.733
42.281
35.05
28.057
21.306
14.804
8.559
2.567
-3.175
-8.666
-13.913
-18.911
-23.65
-28.116
-32.283
-36.129
-39.643
-42.819
-45.658
-48.165
-50.347
-52.215
-53.786
-55.073
-56.09
-56.849
-57.364
-57.645
-57.712
-57.582
-57.275
-56.811
-56.211
-55.491
-54.67
-53.763
-52.785
-51.75
-50.667
-49.547
-48.403
-47.245
-46.083
-44.929
-43.791
-42.679
-41.602
-40.565
-39.577
-38.641
-37.761
-36.941
-36.182
-35.486
-34.854
-34.285
-33.779
-33.334
-32.949
-32.622
-32.351
-32.131
-31.96
-31.835
-31.751
-31.705
-31.693
-31.712
-31.756
-31.823
-31.909
-32.011
-32.126
-32.25
-32.381
-32.516
-32.651
-32.784
-32.914
-33.037
-33.152
-33.257
-33.351
-33.434
-33.505
-33.563
-33.609
-33.643
-33.666
-33.679
-33.681
-33.675
-33.662
-33.643
-33.62
-33.594
-33.567
-33.54
-33.517
-33.497
-33.483
-33.477
-33.479
-33.492
-33.517
-33.555
-33.606
-33.673
-33.756
-33.855
-33.972
-34.107
-34.261
-34.434
-34.627
-34.838
-35.069
-35.319
-35.588
-35.876
-36.181
-36.503
-36.842
-37.196
-37.565
-37.948
-38.343
-38.75
-39.167
-39.594
-40.028
-40.469
-40.916
-41.367
-41.823
-42.281
-42.741
-43.202
-43.664
-44.125
-44.587
-45.047
-45.506
-45.964
-46.42
-46.874
-47.326
-47.776
-48.225
-48.672
-49.117
-49.561
-50.004
-50.446
-50.888
-51.329
-51.771
-52.214
-52.658
-53.103
-53.551
-54
-54.453
-54.909
-55.368
-55.83
-56.296
-56.766
-57.239
-57.714
-58.193
-58.674
-59.156
-59.64
-60.124
-60.609
-61.092
-61.574
-62.054
-62.53
-63.003
-63.471
-63.933
-64.39
-64.839
-65.282
-65.717
-66.145
-66.564
-66.975
-67.377
-67.77
-68.155
-68.531
-68.9
-69.26
-69.614
-69.962
-70.304
-70.642
-70.977
-71.31
-71.643
-71.976
-72.312
-72.651
-72.996
-73.347
-73.707
-74.076
-74.456
-74.848
-75.253
-75.673
-76.107
-76.557
-77.021
-77.501
-77.995
-78.504
-79.026
-79.56
-80.104
-80.658
-81.218
-81.783
-82.349
-82.913
-83.472
-84.023
-84.56
-85.08
-85.578
-86.049
-86.488
-86.892
-87.254
-87.57
-87.835
-88.043
-88.19
-88.27
-88.279
-88.212
-88.064
-87.831
-87.51
-87.096
-86.588
-85.981
-85.275
-84.467
-83.557
-82.542
-81.424
-80.202
-78.877
-77.452
-75.928
-74.308
-72.597
-70.799
-68.918
-66.961
-64.933
-62.841
-60.692
-58.494
-56.254
-53.982
-51.686
-49.376
-47.062
-44.755
-42.468
-40.214
-38.008
-35.864
-33.797
-31.824
-29.96
-28.221
-26.621
-25.173
-23.889
-22.778
-21.854
-21.126
-20.605
-20.298
-20.21
-20.345
-20.705
-21.287
-22.087
-23.096
-24.306
-25.709
-27.305
-29.092
-31.071
-33.241
-35.601
-38.143
-40.855
-43.721
-46.715
-49.812
-52.991
-56.226
-59.491
-62.758
-65.992
-69.15
-72.194
-75.066
-77.688
-80.008
-81.998
-83.676
-85.136
-86.469
-87.742
-89.062
-90.544
-92.242
-94.178
-96.244
-98.128
-99.595
-100.492
-100.638
-99.936
-98.357
-95.835
-92.567
-89.116
-85.86
-83.077
-81.198
-80.391
-81.121
-84.454
-90.503
-98.626
-107.939
-116.139
-121.964
-125.972
-128.53
-131.652
-136.771
-142.207
-145.351
-140.632
-121.064
-82.344
-22.171
57.511
151.206
253.003
356.165
454.603
542.648
615.26
669.764
706.443
728.733
739.765
740.595
728.083
695.302
637.54
553.315
447.795
332.454
218.72
117.636
35.387
-27.003
-69.728
-95.45
-105.757
-102.126
-88.57
-69.222
-50.123
-36.605
-29.852
-29.019
-30.603
-30.71
-28.545
-24.86
-21.627
-21.042
-23.251
-27.392
-32.395
-36.985
-40.633
-43.232
-44.538
-44.574
-43.527
-41.552
-38.946
-36.054
-33.12
-30.435
-28.336
-26.946
-26.242
-26.135
-26.416
-26.889
-27.411
-27.803
-27.919
-27.726
-27.223
-26.445
-25.467
-24.315
-23.008
-21.565
-19.975
-18.232
-16.339
-14.291
-12.105
-9.809
-7.419
-4.95
-2.397
0.279
3.101
6.093
9.283
12.676
16.27
20.057
23.995
28.048
32.198
36.429
40.741
45.142
49.629
54.202
58.863
63.602
68.408
73.275
78.184
83.134
88.129
93.179
98.307
103.532
108.851
114.262
119.759
125.328
130.957
136.625
142.3
147.961
153.601
159.207
164.775
170.288
175.711
181.015
186.165
191.135
195.915
200.486
204.819
208.899
212.715
216.262
219.55
222.561
225.247
227.567
229.481
230.96
232
232.588
232.708
232.342
231.468
230.073
228.162
225.725
222.741
219.191
215.042
210.304
205.028
199.259
193.04
186.406
179.377
171.981
164.265
156.265
148.018
139.555
130.898
122.089
113.182
104.233
95.306
86.436
77.624
68.88
60.22
51.662
43.233
34.953
26.826
18.872
11.115
3.58
-3.705
-10.727
-17.483
-23.971
-30.194
-36.142
-41.794
-47.138
-52.165
-56.868
-61.244
-65.289
-68.995
-72.365
-75.41
-78.14
-80.568
-82.706
-84.559
-86.136
-87.451
-88.515
-89.344
-89.953
-90.357
-90.57
-90.609
-90.491
-90.232
-89.849
-89.352
-88.756
-88.074
-87.317
-86.499
-85.632
-84.726
-83.792
-82.841
-81.883
-80.926
-79.979
-79.049
-78.141
-77.262
-76.415
-75.605
-74.834
-74.104
-73.418
-72.776
-72.178
-71.624
-71.114
-70.647
-70.221
-69.834
-69.484
-69.169
-68.887
-68.635
-68.41
-68.209
-68.031
-67.871
-67.728
-67.599
-67.481
-67.372
-67.271
-67.174
-67.08
-66.987
-66.894
-66.799
-66.702
-66.601
-66.497
-66.388
-66.276
-66.161
-66.043
-65.923
-65.802
-65.68
-65.56
-65.442
-65.327
-65.218
-65.115
-65.019
-64.933
-64.857
-64.794
-64.742
-64.705
-64.683
-64.677
-64.687
-64.713
-64.758
-64.819
-64.898
-64.994
-65.107
-65.237
-65.382
-65.543
-65.716
-65.903
-66.1
-66.307
-66.522
-66.743
-66.968
-67.196
-67.425
-67.653
-67.878
-68.099
-68.313
-68.52
-68.718
-68.906
-69.082
-69.247
-69.398
-69.537
-69.662
-69.774
-69.873
-69.959
-70.034
-70.098
-70.153
-70.199
-70.239
-70.275
-70.309
-70.343
-70.379
-70.42
-70.469
-70.528
-70.599
-70.686
-70.792
-70.917
-71.065
-71.237
-71.437
-71.664
-71.921
-72.208
-72.527
-72.877
-73.259
-73.672
-74.114
-74.586
-75.083
-75.606
-76.15
-76.713
-77.291
-77.88
-78.476
-79.074
-79.669
-80.255
-80.826
-81.377
-81.901
-82.393
-82.844
-83.249
-83.602
-83.895
-84.123
-84.28
-84.36
-84.356
-84.264
-84.078
-83.794
-83.408
-82.915
-82.313
-81.6
-80.774
-79.834
-78.779
-77.609
-76.326
-74.932
-73.429
-71.819
-70.108
-68.299
-66.397
-64.41
-62.342
-60.203
-57.998
-55.736
-53.428
-51.084
-48.713
-46.327
-43.937
-41.554
-39.193
-36.865
-34.586
-32.368
-30.226
-28.176
-26.234
-24.418
-22.742
-21.221
-19.867
-18.693
-17.71
-16.929
-16.357
-16
-15.858
-15.938
-16.25
-16.8
-17.589
-18.616
-19.873
-21.355
-23.063
-24.989
-27.125
-29.463
-31.989
-34.696
-37.585
-40.649
-43.879
-47.254
-50.725
-54.257
-57.816
-61.36
-64.85
-68.236
-71.453
-74.465
-77.238
-79.713
-81.863
-83.673
-85.136
-86.328
-87.319
-88.159
-88.971
-89.896
-90.99
-92.317
-93.851
-95.357
-96.679
-97.724
-98.298
-98.294
-97.695
-96.383
-94.399
-92.16
-90.004
-88.12
-86.849
-86.368
-86.701
-88.601
-92.719
-98.7
-106.552
-115.276
-123
-129.816
-135.268
-139.424
-143.925
-147.638
-148.885
-144.727
-129.257
-98.541
-49.503
19.237
104.755
203.402
309.384
414.896
513.227
597.351
662.863
708.864
735.347
744.119
734.885
704.725
651.45
572.638
471.122
356.536
240.536
137.397
57.115
0.516
-35.659
-59
-76.167
-87.005
-90.305
-84.756
-71.146
-55.79
-43.975
-38.112
-37.632
-38.011
-36.237
-31.934
-26.173
-21.603
-19.454
-19.249
-20.235
-21.339
-22.057
-22.475
-22.616
-22.438
-21.847
-20.829
-19.472
-17.913
-16.305
-14.762
-13.4
-12.384
-11.881
-11.925
-12.447
-13.312
-14.342
-15.373
-16.257
-16.844
-16.99
-16.62
-15.723
-14.318
-12.459
-10.198
-7.579
-4.657
-1.488
1.881
5.41
9.059
12.793
16.573
20.36
24.125
27.853
31.535
35.173
38.772
42.339
45.889
49.443
53.014
56.618
60.266
63.972
67.749
71.614
75.583
79.665
83.871
88.209
92.688
97.32
102.107
107.046
112.129
117.347
122.688
128.142
133.687
139.296
144.941
150.594
156.238
161.867
167.468
173.024
178.517
183.924
189.236
194.455
199.577
204.594
209.499
214.284
218.966
223.578
228.14
232.658
237.117
241.482
245.724
249.82
253.731
257.417
260.82
263.862
266.497
268.695
270.412
271.6
272.184
272.062
271.16
269.428
266.834
263.369
259.015
253.764
247.641
240.69
232.972
224.558
215.477
205.747
195.418
184.553
173.251
161.633
149.802
137.851
125.877
113.986
102.28
90.846
79.736
68.976
58.597
48.634
39.158
30.241
21.921
14.218
7.127
0.634
-5.277
-10.629
-15.476
-19.894
-23.949
-27.69
-31.139
-34.305
-37.208
-39.886
-42.393
-44.774
-47.057
-49.26
-51.397
-53.484
-55.528
-57.522
-59.433
-61.211
-62.823
-64.252
-65.496
-66.56
-67.441
-68.132
-68.624
-68.922
-69.034
-68.969
-68.736
-68.336
-67.783
-67.098
-66.314
-65.47
-64.595
-63.709
-62.828
-61.965
-61.133
-60.345
-59.607
-58.921
-58.287
-57.708
-57.189
-56.735
-56.347
-56.023
-55.759
-55.55
-55.391
-55.281
-55.217
-55.195
-55.212
-55.268
-55.362
-55.494
-55.664
-55.869
-56.107
-56.375
-56.67
-56.99
-57.332
-57.691
-58.066
-58.452
-58.849
-59.254
-59.664
-60.079
-60.496
-60.914
-61.331
-61.748
-62.162
-62.573
-62.98
-63.384
-63.783
-64.178
-64.569
-64.955
-65.338
-65.716
-66.09
-66.46
-66.826
-67.187
-67.544
-67.897
-68.246
-68.59
-68.93
-69.265
-69.595
-69.921
-70.242
-70.557
-70.867
-71.171
-71.467
-71.756
-72.037
-72.308
-72.568
-72.818
-73.055
-73.279
-73.49
-73.686
-73.866
-74.03
-74.177
-74.306
-74.417
-74.509
-74.581
-74.634
-74.668
-74.682
-74.677
-74.653
-74.611
-74.552
-74.476
-74.385
-74.28
-74.162
-74.034
-73.897
-73.753
-73.605
-73.455
-73.305
-73.158
-73.016
-72.882
-72.759
-72.649
-72.554
-72.478
-72.422
-72.388
-72.38
-72.398
-72.445
-72.522
-72.63
-72.771
-72.945
-73.152
-73.393
-73.666
-73.973
-74.31
-74.678
-75.075
-75.497
-75.943
-76.409
-76.892
-77.388
-77.892
-78.4
-78.908
-79.41
-79.9
-80.374
-80.825
-81.249
-81.639
-81.99
-82.296
-82.551
-82.749
-82.885
-82.954
-82.949
-82.867
-82.702
-82.45
-82.109
-81.673
-81.142
-80.511
-79.78
-78.947
-78.011
-76.973
-75.832
-74.591
-73.251
-71.816
-70.29
-68.676
-66.98
-65.207
-63.365
-61.458
-59.495
-57.483
-55.432
-53.349
-51.246
-49.131
-47.017
-44.917
-42.845
-40.815
-38.843
-36.943
-35.131
-33.425
-31.839
-30.386
-29.08
-27.932
-26.954
-26.159
-25.557
-25.16
-24.974
-25.007
-25.264
-25.749
-26.46
-27.395
-28.546
-29.907
-31.475
-33.252
-35.24
-37.439
-39.848
-42.463
-45.277
-48.275
-51.436
-54.73
-58.126
-61.595
-65.108
-68.639
-72.16
-75.634
-79.02
-82.272
-85.33
-88.121
-90.6
-92.739
-94.559
-96.143
-97.57
-98.92
-100.308
-101.855
-103.642
-105.697
-107.892
-109.964
-111.713
-112.977
-113.61
-113.5
-112.512
-110.583
-107.961
-105.101
-102.402
-100.286
-99.077
-99.012
-100.508
-103.947
-109.323
-116.392
-124.838
-133.775
-141.925
-148.115
-150.795
-149.162
-144.144
-136.233
-125.056
-108.996
-83.288
-43.188
13.416
86.006
169.44
255.876
338.281
411.456
473.194
523.858
564.713
596.372
619.309
634.547
642.251
642.038
631.102
603.166
552.731
477.152
379.51
269.787
160.246
62.413
-15.71
-71.055
-103.651
-115.355
-109.515
-91.305
-67.278
-44.904
-30.553
-26.151
-29.917
-37.166
-42.281
-43.136
-40.43
-36.521
-34.66
-35.814
-39.186
-43.634
-47.695
-50.737
-52.843
-54.004
-54.193
-53.468
-51.928
-49.747
-47.172
-44.419
-41.639
-39.036
-36.851
-35.169
-33.956
-33.135
-32.541
-32.029
-31.503
-30.834
-29.921
-28.754
-27.349
-25.744
-24.01
-22.171
-20.24
-18.233
-16.135
-13.936
-11.634
-9.223
-6.714
-4.132
-1.488
1.21
3.971
6.834
9.828
12.978
16.312
19.834
23.545
27.435
31.464
35.596
39.812
44.093
48.44
52.859
57.348
61.906
66.536
71.225
75.964
80.748
85.562
90.403
95.275
100.183
105.147
110.184
115.302
120.504
125.785
131.137
136.548
142.006
147.488
152.975
158.449
163.889
169.277
174.593
179.811
184.906
189.849
194.609
199.161
203.476
207.529
211.295
214.75
217.874
220.648
223.054
225.075
226.694
227.897
228.668
228.998
228.874
228.29
227.24
225.719
223.728
221.267
218.343
214.96
211.128
206.857
202.163
197.059
191.565
185.7
179.486
172.946
166.105
158.989
151.627
144.046
136.277
128.348
120.29
112.134
103.91
95.647
87.376
79.126
70.924
62.799
54.778
46.887
39.149
31.589
24.228
17.087
10.184
3.535
-2.844
-8.939
-14.741
-20.239
-25.426
-30.297
-34.848
-39.077
-42.984
-46.571
-49.842
-52.801
-55.456
-57.814
-59.885
-61.679
-63.209
-64.485
-65.523
-66.335
-66.936
-67.34
-67.564
-67.621
-67.528
-67.3
-66.951
-66.498
-65.954
-65.334
-64.652
-63.92
-63.152
-62.36
-61.554
-60.744
-59.942
-59.155
-58.391
-57.658
-56.962
-56.307
-55.698
-55.139
-54.633
-54.18
-53.783
-53.442
-53.156
-52.924
-52.746
-52.619
-52.542
-52.511
-52.523
-52.577
-52.667
-52.792
-52.947
-53.128
-53.333
-53.557
-53.797
-54.051
-54.314
-54.584
-54.857
-55.132
-55.406
-55.676
-55.941
-56.199
-56.449
-56.69
-56.921
-57.141
-57.351
-57.551
-57.74
-57.92
-58.091
-58.253
-58.409
-58.558
-58.702
-58.843
-58.982
-59.119
-59.257
-59.397
-59.539
-59.686
-59.837
-59.994
-60.158
-60.33
-60.509
-60.697
-60.894
-61.1
-61.316
-61.54
-61.774
-62.016
-62.266
-62.524
-62.788
-63.059
-63.334
-63.614
-63.896
-64.181
-64.466
-64.75
-65.032
-65.311
-65.586
-65.855
-66.117
-66.37
-66.614
-66.848
-67.07
-67.28
-67.476
-67.659
-67.826
-67.979
-68.116
-68.237
-68.341
-68.43
-68.502
-68.558
-68.598
-68.624
-68.634
-68.631
-68.615
-68.586
-68.547
-68.497
-68.439
-68.374
-68.302
-68.227
-68.148
-68.069
-67.99
-67.913
-67.841
-67.775
-67.716
-67.666
-67.628
-67.602
-67.591
-67.595
-67.616
-67.656
-67.717
-67.798
-67.902
-68.029
-68.18
-68.355
-68.555
-68.779
-69.028
-69.3
-69.596
-69.915
-70.254
-70.614
-70.991
-71.385
-71.791
-72.209
-72.634
-73.064
-73.495
-73.923
-74.345
-74.756
-75.152
-75.53
-75.884
-76.211
-76.505
-76.762
-76.979
-77.149
-77.268
-77.331
-77.334
-77.272
-77.141
-76.937
-76.657
-76.297
-75.854
-75.326
-74.709
-74.002
-73.205
-72.315
-71.333
-70.259
-69.094
-67.839
-66.499
-65.075
-63.571
-61.991
-60.341
-58.627
-56.853
-55.027
-53.155
-51.246
-49.307
-47.348
-45.378
-43.409
-41.454
-39.527
-37.642
-35.814
-34.059
-32.393
-30.832
-29.39
-28.081
-26.918
-25.912
-25.078
-24.429
-23.977
-23.73
-23.696
-23.881
-24.288
-24.921
-25.779
-26.855
-28.143
-29.638
-31.337
-33.246
-35.367
-37.701
-40.244
-42.986
-45.921
-49.039
-52.326
-55.763
-59.323
-62.972
-66.679
-70.415
-74.15
-77.856
-81.484
-84.957
-88.219
-91.238
-94.011
-96.577
-98.966
-101.172
-103.219
-105.188
-107.122
-109.027
-110.849
-112.412
-113.555
-114.221
-114.369
-113.934
-112.938
-111.431
-109.476
-107.307
-105.206
-103.343
-101.872
-101.01
-100.863
-101.534
-103.261
-106.186
-110.334
-115.786
-122.539
-129.831
-136.431
-141.279
-142.954
-141.387
-138.216
-133.329
-125.605
-111.809
-85.107
-41.532
19.328
94.948
177.246
258.836
335.488
403.834
463.897
516.489
560.537
596.079
624.024
644.587
657.698
661.316
649.183
614.675
554.56
469.005
364.646
252.46
142.646
44.889
-33.131
-87.181
-115.551
-119.061
-102.982
-75.897
-46.434
-23.261
-11.413
-10.466
-17.451
-27.344
-35.623
-40.371
-41.899
-41.725
-41.345
-42.234
-44.527
-47.752
-51.65
-54.959
-56.985
-57.591
-56.54
-54.427
-51.767
-48.724
-45.612
-42.547
-39.635
-37.129
-35.106
-33.51
-32.288
-31.322
-30.484
-29.672
-28.742
-27.539
-26.017
-24.215
-22.194
-20.033
-17.78
-15.46
-13.119
-10.804
-8.538
-6.309
-4.073
-1.79
0.548
2.925
5.325
7.741
10.201
12.754
15.438
18.278
21.29
24.49
27.899
31.532
35.383
39.418
43.585
47.849
52.195
56.621
61.128
65.708
70.342
75.012
79.712
84.444
89.211
94.009
98.824
103.646
108.482
113.343
118.245
123.186
128.146
133.102
138.039
142.952
147.839
152.692
157.493
162.222
166.866
171.42
175.887
180.261
184.527
188.671
192.692
196.606
200.449
204.245
207.994
211.673
215.25
218.699
221.991
225.089
227.947
230.498
232.694
234.502
235.897
236.848
237.304
237.183
236.391
234.853
232.52
229.378
225.424
220.657
215.098
208.787
201.78
194.151
185.946
177.18
167.881
158.087
147.864
137.32
126.574
115.736
104.92
94.212
83.685
73.416
63.447
53.801
44.497
35.541
26.973
18.866
11.271
4.223
-2.257
-8.19
-13.61
-18.552
-23.083
-27.259
-31.12
-34.709
-38.041
-41.117
-43.947
-46.538
-48.914
-51.126
-53.212
-55.201
-57.119
-58.972
-60.755
-62.457
-64.038
-65.462
-66.71
-67.766
-68.632
-69.319
-69.831
-70.176
-70.363
-70.388
-70.254
-69.963
-69.516
-68.922
-68.196
-67.36
-66.446
-65.488
-64.509
-63.53
-62.565
-61.624
-60.715
-59.846
-59.018
-58.234
-57.497
-56.813
-56.186
-55.621
-55.117
-54.672
-54.283
-53.944
-53.652
-53.403
-53.194
-53.022
-52.885
-52.782
-52.712
-52.677
-52.674
-52.702
-52.757
-52.837
-52.94
-53.063
-53.202
-53.354
-53.518
-53.69
-53.869
-54.054
-54.242
-54.431
-54.62
-54.807
-54.992
-55.174
-55.351
-55.522
-55.688
-55.848
-56.001
-56.148
-56.288
-56.422
-56.548
-56.669
-56.783
-56.892
-56.993
-57.089
-57.178
-57.261
-57.337
-57.406
-57.469
-57.526
-57.576
-57.62
-57.657
-57.689
-57.713
-57.731
-57.743
-57.748
-57.746
-57.737
-57.722
-57.7
-57.671
-57.636
-57.595
-57.547
-57.494
-57.435
-57.37
-57.3
-57.225
-57.145
-57.062
-56.974
-56.882
-56.787
-56.689
-56.589
-56.488
-56.385
-56.281
-56.178
-56.076
-55.974
-55.875
-55.779
-55.685
-55.596
-55.51
-55.429
-55.353
-55.281
-55.215
-55.155
-55.101
-55.052
-55.009
-54.973
-54.942
-54.917
-54.899
-54.887
-54.88
-54.881
-54.887
-54.901
-54.921
-54.948
-54.983
-55.026
-55.078
-55.137
-55.206
-55.283
-55.37
-55.466
-55.572
-55.688
-55.815
-55.953
-56.103
-56.264
-56.438
-56.624
-56.824
-57.036
-57.262
-57.5
-57.752
-58.017
-58.294
-58.583
-58.884
-59.194
-59.514
-59.841
-60.173
-60.509
-60.845
-61.179
-61.508
-61.829
-62.138
-62.431
-62.705
-62.957
-63.181
-63.375
-63.533
-63.651
-63.725
-63.75
-63.722
-63.634
-63.483
-63.264
-62.972
-62.603
-62.152
-61.617
-60.993
-60.277
-59.466
-58.558
-57.55
-56.441
-55.231
-53.918
-52.504
-50.991
-49.379
-47.674
-45.877
-43.994
-42.03
-39.989
-37.879
-35.707
-33.479
-31.205
-28.893
-26.553
-24.195
-21.833
-19.481
-17.154
-14.867
-12.637
-10.482
-8.419
-6.466
-4.639
-2.953
-1.422
-0.059
1.121
2.104
2.877
3.432
3.759
3.853
3.711
3.33
2.712
1.862
0.789
-0.502
-2.009
-3.736
-5.688
-7.865
-10.263
-12.876
-15.694
-18.709
-21.907
-25.269
-28.766
-32.365
-36.033
-39.743
-43.463
-47.164
-50.793
-54.266
-57.519
-60.521
-63.264
-65.794
-68.147
-70.318
-72.35
-74.344
-76.347
-78.373
-80.357
-82.066
-83.313
-84.014
-84.052
-83.324
-81.813
-79.509
-76.528
-73.225
-69.938
-66.921
-64.505
-63.015
-62.702
-63.856
-66.718
-71.334
-77.702
-85.865
-95.223
-104.477
-112.424
-117.631
-119.791
-120.124
-118.542
-113.829
-102.472
-78.392
-38.191
18.45
88.321
164.324
241.167
315.947
387.149
454.858
517.552
572.173
616.417
650.17
675.003
692.347
701.759
697.379
671.102
617.789
535.777
431.931
319.139
209.106
112.828
36.133
-20.277
-55.753
-71.323
-68.989
-52.377
-28.348
-5.376
8.754
11.273
3.81
-8.46
-17.928
-21.381
-18.719
-11.582
-5.079
-1.629
-1.393
-4.52
-8.696
-12.486
-15.857
-18.313
-20.162
-21.671
-22.628
-23.104
-23.195
-22.953
-22.547
-22.147
-21.913
-22.03
-22.576
-23.512
-24.723
-26.049
-27.335
-28.43
-29.191
-29.482
-29.225
-28.409
-27.055
-25.214
-22.937
-20.269
-17.264
-13.979
-10.458
-6.741
-2.866
1.134
5.217
9.338
13.466
17.58
21.666
25.721
29.744
33.736
37.705
41.664
45.624
49.595
53.584
57.6
61.652
65.754
69.918
74.155
78.475
82.88
87.376
91.967
96.657
101.451
106.349
111.342
116.425
121.59
126.828
132.123
137.451
142.781
148.085
153.349
158.557
163.704
168.779
173.769
178.661
183.444
188.107
192.647
197.051
201.302
205.396
209.339
213.152
216.872
220.515
224.068
227.513
230.82
233.953
236.882
239.563
241.943
243.976
245.624
246.859
247.664
247.995
247.792
246.977
245.454
243.16
240.074
236.184
231.492
226.018
219.782
212.831
205.233
197.035
188.265
178.954
169.127
158.847
148.211
137.331
126.344
115.36
104.455
93.703
83.166
72.891
62.917
53.268
43.946
34.982
26.435
18.351
10.778
3.725
-2.831
-8.932
-14.636
-19.994
-25.04
-29.805
-34.313
-38.58
-42.613
-46.414
-49.976
-53.316
-56.475
-59.488
-62.387
-65.184
-67.869
-70.425
-72.821
-75.031
-77.036
-78.82
-80.377
-81.708
-82.823
-83.735
-84.46
-85.008
-85.374
-85.56
-85.564
-85.396
-85.073
-84.619
-84.062
-83.43
-82.749
-82.044
-81.333
-80.631
-79.946
-79.287
-78.656
-78.058
-77.501
-76.993
-76.54
-76.149
-75.822
-75.561
-75.363
-75.229
-75.154
-75.135
-75.171
-75.259
-75.399
-75.588
-75.829
-76.12
-76.46
-76.848
-77.28
-77.752
-78.263
-78.807
-79.381
-79.981
-80.603
-81.244
-81.901
-82.57
-83.249
-83.934
-84.622
-85.311
-85.998
-86.68
-87.356
-88.023
-88.679
-89.323
-89.952
-90.566
-91.164
-91.743
-92.304
-92.845
-93.365
-93.864
-94.342
-94.798
-95.23
-95.64
-96.027
-96.39
-96.731
-97.05
-97.347
-97.623
-97.878
-98.115
-98.332
-98.532
-98.714
-98.88
-99.03
-99.166
-99.287
-99.395
-99.492
-99.577
-99.653
-99.721
-99.781
-99.835
-99.884
-99.93
-99.973
-100.016
-100.059
-100.105
-100.153
-100.207
-100.266
-100.333
-100.409
-100.494
-100.591
-100.699
-100.82
-100.954
-101.103
-101.266
-101.446
-101.641
-101.852
-102.08
-102.325
-102.587
-102.864
-103.158
-103.467
-103.79
-104.127
-104.477
-104.838
-105.21
-105.589
-105.975
-106.365
-106.757
-107.149
-107.537
-107.92
-108.294
-108.656
-109.003
-109.332
-109.639
-109.921
-110.175
-110.395
-110.58
-110.724
-110.824
-110.876
-110.876
-110.822
-110.708
-110.533
-110.293
-109.984
-109.604
-109.15
-108.619
-108.009
-107.317
-106.541
-105.681
-104.735
-103.701
-102.58
-101.371
-100.074
-98.691
-97.221
-95.667
-94.029
-92.311
-90.515
-88.644
-86.703
-84.694
-82.624
-80.497
-78.318
-76.095
-73.834
-71.54
-69.222
-66.887
-64.542
-62.196
-59.857
-57.535
-55.239
-52.982
-50.775
-48.633
-46.567
-44.593
-42.725
-40.978
-39.365
-37.897
-36.586
-35.441
-34.473
-33.691
-33.105
-32.723
-32.549
-32.589
-32.842
-33.31
-33.988
-34.87
-35.946
-37.206
-38.644
-40.259
-42.055
-44.03
-46.183
-48.509
-51
-53.646
-56.431
-59.333
-62.33
-65.396
-68.502
-71.626
-74.739
-77.81
-80.807
-83.672
-86.33
-88.725
-90.829
-92.645
-94.234
-95.657
-96.954
-98.216
-99.563
-101.074
-102.782
-104.612
-106.333
-107.719
-108.634
-108.945
-108.517
-107.281
-105.185
-102.309
-99.01
-95.706
-92.705
-90.317
-88.842
-88.567
-89.89
-93.099
-98.219
-105.181
-113.835
-123.984
-134.859
-144.729
-151.72
-154.066
-151.303
-145.134
-136.446
-123.996
-104.128
-70.018
-16.064
58.46
150.383
252.464
355.586
453.178
540.105
612.239
668.077
706.349
726.289
728.298
711.099
672.548
611.218
527.214
425.18
314.422
206.354
111.845
37.391
-16.416
-53.086
-77.728
-93.678
-101.124
-99.526
-89.272
-73.589
-58.507
-48.404
-44.955
-46.474
-48.345
-47.851
-44.372
-38.901
-34.117
-31.171
-29.892
-29.847
-29.97
-29.877
-29.88
-30.093
-30.623
-31.444
-32.245
-32.869
-33.365
-33.715
-33.914
-33.999
-33.969
-33.919
-34.044
-34.39
-34.887
-35.44
-35.896
-36.145
-36.133
-35.763
-34.921
-33.56
-31.674
-29.3
-26.52
-23.391
-19.955
-16.265
-12.369
-8.323
-4.175
0.03
4.259
8.486
12.696
16.875
21.014
25.113
29.176
33.214
37.245
41.282
45.336
49.417
53.534
57.699
61.928
66.234
70.628
75.117
79.706
84.401
89.213
94.148
99.209
104.39
109.683
115.079
120.57
126.144
131.779
137.446
143.115
148.766
154.387
159.97
165.505
170.977
176.37
181.668
186.867
191.963
196.951
201.819
206.557
211.169
215.672
220.1
224.475
228.795
233.038
237.177
241.181
245.017
248.648
252.025
255.087
257.787
260.088
261.956
263.35
264.21
264.457
264
262.765
260.708
257.799
254.021
249.37
243.866
237.537
230.443
222.629
214.106
204.93
195.158
184.86
174.151
163.103
151.783
140.33
128.872
117.45
106.124
94.897
83.718
72.724
62.054
51.736
41.864
32.566
23.902
16.019
9.063
2.891
-2.649
-7.626
-12.181
-16.412
-20.364
-24.185
-27.997
-31.729
-35.318
-38.756
-42.022
-45.155
-48.197
-51.115
-53.876
-56.514
-59.05
-61.479
-63.78
-65.903
-67.81
-69.497
-70.976
-72.245
-73.3
-74.138
-74.749
-75.142
-75.329
-75.315
-75.107
-74.715
-74.154
-73.452
-72.651
-71.783
-70.872
-69.939
-68.996
-68.055
-67.131
-66.231
-65.358
-64.517
-63.712
-62.947
-62.23
-61.567
-60.957
-60.4
-59.892
-59.429
-59.01
-58.633
-58.297
-58.001
-57.744
-57.526
-57.349
-57.214
-57.122
-57.07
-57.056
-57.078
-57.135
-57.223
-57.341
-57.484
-57.652
-57.841
-58.05
-58.277
-58.52
-58.776
-59.044
-59.323
-59.61
-59.905
-60.206
-60.511
-60.821
-61.134
-61.45
-61.768
-62.087
-62.407
-62.727
-63.046
-63.364
-63.68
-63.994
-64.303
-64.608
-64.908
-65.202
-65.491
-65.774
-66.051
-66.322
-66.587
-66.846
-67.1
-67.349
-67.593
-67.833
-68.069
-68.301
-68.531
-68.759
-68.986
-69.212
-69.439
-69.666
-69.894
-70.124
-70.357
-70.593
-70.833
-71.076
-71.325
-71.579
-71.839
-72.105
-72.378
-72.658
-72.945
-73.239
-73.54
-73.846
-74.158
-74.474
-74.793
-75.113
-75.434
-75.752
-76.066
-76.373
-76.67
-76.953
-77.22
-77.466
-77.688
-77.882
-78.044
-78.171
-78.258
-78.302
-78.299
-78.245
-78.137
-77.969
-77.74
-77.445
-77.081
-76.645
-76.133
-75.545
-74.876
-74.126
-73.294
-72.377
-71.376
-70.29
-69.119
-67.864
-66.527
-65.108
-63.612
-62.04
-60.398
-58.69
-56.921
-55.096
-53.223
-51.307
-49.355
-47.375
-45.374
-43.36
-41.342
-39.33
-37.332
-35.36
-33.425
-31.539
-29.715
-27.967
-26.309
-24.754
-23.317
-22.013
-20.854
-19.852
-19.02
-18.367
-17.906
-17.643
-17.588
-17.748
-18.128
-18.731
-19.558
-20.606
-21.869
-23.34
-25.009
-26.867
-28.912
-31.138
-33.541
-36.116
-38.858
-41.762
-44.818
-48.005
-51.296
-54.663
-58.076
-61.515
-64.963
-68.394
-71.78
-75.085
-78.265
-81.281
-84.089
-86.621
-88.83
-90.697
-92.242
-93.56
-94.776
-95.995
-97.349
-98.983
-100.975
-103.349
-106.015
-108.717
-111.173
-113.105
-114.192
-114.13
-112.717
-109.849
-105.641
-100.478
-94.844
-89.361
-84.759
-81.746
-81.048
-83.307
-88.872
-97.847
-109.682
-122.896
-135.82
-146.653
-154.363
-159.299
-161.374
-159.509
-150.686
-129.67
-91.598
-33.378
44.827
138.905
242.084
345.57
440.462
520.37
582.008
626.646
658.783
681.169
694.256
694.055
672.974
626.757
554.421
460.612
355.766
249.57
151.827
69.306
3.832
-43.464
-74.686
-92.38
-97.284
-92.466
-80.429
-64.738
-51.33
-42.725
-39.614
-40.469
-40.771
-38.719
-34.553
-29.498
-26.414
-26.277
-28.375
-31.961
-35.79
-39.122
-41.921
-43.999
-45.13
-45.327
-44.692
-43.352
-41.569
-39.61
-37.658
-35.991
-34.901
-34.467
-34.644
-35.334
-36.337
-37.47
-38.579
-39.454
-39.902
-39.83
-39.199
-38.024
-36.359
-34.243
-31.711
-28.821
-25.63
-22.188
-18.538
-14.712
-10.742
-6.669
-2.539
1.605
5.73
9.821
13.867
17.869
21.83
25.754
29.653
33.544
37.437
41.344
45.276
49.24
53.247
57.309
61.44
65.652
69.955
74.356
78.86
83.469
88.185
93.007
97.93
102.948
108.055
113.245
118.512
123.848
129.244
134.691
140.177
145.693
151.223
156.751
162.259
167.724
173.125
178.439
183.641
188.705
193.605
198.315
202.81
207.069
211.068
214.782
218.184
221.243
223.936
226.244
228.15
229.637
230.696
231.322
231.52
231.307
230.691
229.673
228.252
226.417
224.161
221.482
218.378
214.845
210.882
206.484
201.654
196.403
190.732
184.635
178.089
171.057
163.522
155.494
146.995
138.064
128.749
119.1
109.185
99.089
88.888
78.657
68.457
58.331
48.343
38.567
29.093
20.03
11.462
3.436
-4.006
-10.844
-17.077
-22.712
-27.787
-32.374
-36.525
-40.284
-43.683
-46.735
-49.469
-51.93
-54.172
-56.257
-58.238
-60.144
-62.004
-63.842
-65.664
-67.466
-69.222
-70.877
-72.398
-73.766
-74.97
-76.017
-76.905
-77.628
-78.181
-78.562
-78.768
-78.804
-78.675
-78.38
-77.931
-77.346
-76.653
-75.892
-75.093
-74.277
-73.462
-72.656
-71.87
-71.115
-70.394
-69.708
-69.059
-68.449
-67.881
-67.362
-66.894
-66.476
-66.104
-65.774
-65.482
-65.224
-65
-64.805
-64.639
-64.5
-64.388
-64.305
-64.251
-64.225
-64.226
-64.249
-64.294
-64.357
-64.436
-64.528
-64.63
-64.741
-64.857
-64.979
-65.105
-65.233
-65.363
-65.494
-65.625
-65.756
-65.886
-66.015
-66.143
-66.27
-66.395
-66.52
-66.643
-66.766
-66.887
-67.008
-67.129
-67.249
-67.368
-67.487
-67.606
-67.724
-67.843
-67.962
-68.082
-68.205
-68.329
-68.457
-68.589
-68.724
-68.865
-69.009
-69.159
-69.314
-69.474
-69.639
-69.809
-69.983
-70.162
-70.344
-70.53
-70.719
-70.91
-71.103
-71.297
-71.493
-71.69
-71.888
-72.087
-72.286
-72.485
-72.685
-72.885
-73.085
-73.286
-73.487
-73.688
-73.891
-74.094
-74.299
-74.505
-74.714
-74.926
-75.141
-75.359
-75.582
-75.81
-76.043
-76.283
-76.529
-76.784
-77.047
-77.319
-77.602
-77.895
-78.199
-78.514
-78.84
-79.178
-79.526
-79.885
-80.254
-80.631
-81.017
-81.409
-81.806
-82.206
-82.608
-83.008
-83.404
-83.792
-84.171
-84.535
-84.882
-85.207
-85.508
-85.779
-86.018
-86.219
-86.379
-86.493
-86.557
-86.567
-86.516
-86.402
-86.219
-85.964
-85.632
-85.22
-84.725
-84.142
-83.47
-82.706
-81.848
-80.894
-79.842
-78.692
-77.444
-76.098
-74.655
-73.117
-71.487
-69.768
-67.964
-66.079
-64.117
-62.085
-59.988
-57.832
-55.625
-53.375
-51.089
-48.777
-46.449
-44.115
-41.789
-39.484
-37.214
-34.993
-32.836
-30.76
-28.78
-26.911
-25.169
-23.566
-22.114
-20.826
-19.715
-18.793
-18.072
-17.56
-17.265
-17.193
-17.349
-17.734
-18.345
-19.177
-20.225
-21.486
-22.963
-24.657
-26.571
-28.704
-31.05
-33.604
-36.349
-39.268
-42.329
-45.502
-48.759
-52.071
-55.411
-58.749
-62.05
-65.273
-68.378
-71.304
-73.979
-76.356
-78.405
-80.144
-81.65
-82.994
-84.247
-85.514
-86.911
-88.523
-90.394
-92.416
-94.347
-96.002
-97.23
-97.904
-97.927
-97.155
-95.491
-93.118
-90.423
-87.765
-85.53
-84
-83.39
-84.106
-86.563
-90.862
-96.897
-104.467
-112.755
-120.578
-126.84
-130.021
-129.639
-126.659
-120.946
-111.553
-95.476
-67.112
-23.334
35.946
107.554
184.729
262.31
337.466
408.617
475.35
535.919
587.373
627.627
656.713
675.944
686.269
686.861
672.672
637.521
578.206
494.76
393.589
285.298
179.882
86.689
12.051
-41.258
-72.528
-82.982
-76.465
-59.276
-38.114
-20.51
-11.583
-11.305
-17.359
-24.679
-28.394
-27.774
-23.96
-19.576
-17.567
-18.323
-21.006
-24.588
-27.68
-29.759
-30.892
-30.982
-30.166
-28.7
-26.717
-24.423
-22.119
-20.006
-18.291
-17.239
-16.912
-17.237
-18.116
-19.374
-20.823
-22.313
-23.652
-24.621
-25.101
-25.04
-24.423
-23.293
-21.681
-19.608
-17.123
-14.287
-11.154
-7.772
-4.181
-0.41
3.501
7.502
11.548
15.588
19.593
23.544
27.432
31.254
35.011
38.708
42.357
45.975
49.578
53.18
56.796
60.435
64.112
67.839
71.631
75.501
79.458
83.507
87.653
91.901
96.255
100.724
105.31
110.007
114.81
119.704
124.673
129.7
134.768
139.849
144.924
149.978
154.999
159.989
164.949
169.867
174.728
179.505
184.17
188.709
193.111
197.365
201.474
205.436
209.255
212.951
216.531
219.977
223.261
226.324
229.098
231.535
233.599
235.263
236.509
237.305
237.621
237.434
236.712
235.422
233.525
230.961
227.688
223.702
219.019
213.695
207.807
201.412
194.56
187.302
179.679
171.737
163.526
155.081
146.444
137.666
128.808
119.953
111.176
102.518
94.009
85.651
77.428
69.339
61.387
53.571
45.898
38.379
31.023
23.854
16.895
10.159
3.65
-2.641
-8.721
-14.588
-20.231
-25.635
-30.775
-35.636
-40.206
-44.468
-48.416
-52.046
-55.359
-58.367
-61.083
-63.518
-65.682
-67.583
-69.226
-70.624
-71.788
-72.732
-73.473
-74.024
-74.403
-74.626
-74.711
-74.672
-74.524
-74.278
-73.944
-73.535
-73.06
-72.53
-71.956
-71.348
-70.715
-70.067
-69.414
-68.763
-68.122
-67.498
-66.894
-66.317
-65.77
-65.256
-64.778
-64.337
-63.935
-63.572
-63.251
-62.969
-62.728
-62.526
-62.363
-62.236
-62.145
-62.087
-62.061
-62.064
-62.094
-62.149
-62.227
-62.325
-62.441
-62.574
-62.721
-62.88
-63.048
-63.225
-63.407
-63.592
-63.779
-63.967
-64.154
-64.338
-64.519
-64.697
-64.87
-65.038
-65.2
-65.357
-65.508
-65.652
-65.79
-65.922
-66.048
-66.168
-66.281
-66.389
-66.491
-66.588
-66.68
-66.767
-66.849
-66.928
-67.003
-67.074
-67.142
-67.208
-67.272
-67.333
-67.393
-67.452
-67.51
-67.567
-67.624
-67.681
-67.737
-67.794
-67.851
-67.907
-67.964
-68.021
-68.078
-68.136
-68.194
-68.252
-68.311
-68.371
-68.432
-68.493
-68.556
-68.619
-68.684
-68.749
-68.816
-68.884
-68.952
-69.022
-69.092
-69.162
-69.233
-69.304
-69.375
-69.446
-69.516
-69.586
-69.654
-69.721
-69.787
-69.851
-69.913
-69.973
-70.03
-70.085
-70.137
-70.186
-70.231
-70.272
-70.309
-70.341
-70.369
-70.391
-70.408
-70.419
-70.424
-70.423
-70.416
-70.402
-70.382
-70.356
-70.324
-70.286
-70.242
-70.194
-70.141
-70.084
-70.024
-69.961
-69.897
-69.832
-69.767
-69.704
-69.642
-69.585
-69.532
-69.485
-69.445
-69.414
-69.393
-69.383
-69.386
-69.402
-69.433
-69.48
-69.543
-69.625
-69.725
-69.845
-69.985
-70.145
-70.326
-70.528
-70.751
-70.993
-71.256
-71.536
-71.835
-72.149
-72.478
-72.819
-73.17
-73.53
-73.893
-74.259
-74.622
-74.98
-75.328
-75.662
-75.978
-76.272
-76.538
-76.773
-76.972
-77.131
-77.243
-77.307
-77.316
-77.266
-77.152
-76.971
-76.718
-76.39
-75.981
-75.49
-74.913
-74.247
-73.491
-72.641
-71.697
-70.658
-69.522
-68.29
-66.962
-65.54
-64.026
-62.422
-60.731
-58.958
-57.108
-55.184
-53.194
-51.143
-49.038
-46.885
-44.693
-42.469
-40.222
-37.961
-35.696
-33.438
-31.198
-28.99
-26.827
-24.723
-22.694
-20.754
-18.919
-17.205
-15.625
-14.191
-12.916
-11.811
-10.889
-10.159
-9.632
-9.315
-9.215
-9.335
-9.679
-10.243
-11.024
-12.015
-13.209
-14.599
-16.185
-17.967
-19.944
-22.114
-24.473
-27.015
-29.726
-32.59
-35.579
-38.667
-41.83
-45.043
-48.281
-51.517
-54.716
-57.84
-60.847
-63.68
-66.268
-68.562
-70.533
-72.19
-73.607
-74.859
-76.019
-77.196
-78.52
-80.067
-81.869
-83.834
-85.713
-87.3
-88.422
-88.863
-88.438
-86.995
-84.432
-80.907
-76.844
-72.636
-68.731
-65.66
-63.876
-63.916
-66.317
-71.271
-78.677
-88.368
-99.463
-110.432
-119.883
-126.056
-128.274
-127.446
-123.293
-114.65
-98.357
-68.831
-23.159
38.44
112.369
191.543
270.666
346.732
418.431
485.738
546.603
598
637.146
663.166
678.409
684.776
682.829
669.089
636.087
579.07
496.592
393.69
282.235
173.864
79.154
5.052
-46.991
-77.892
-90.112
-87.752
-75.758
-59.074
-43.657
-34.024
-30.895
-33.208
-37.187
-38.559
-36.36
-31.29
-25.503
-21.859
-21.089
-22.583
-25.424
-28.35
-30.84
-32.962
-34.695
-35.994
-36.76
-36.936
-36.603
-35.94
-35.114
-34.25
-33.472
-32.926
-32.777
-33.068
-33.734
-34.648
-35.643
-36.568
-37.293
-37.686
-37.617
-37.023
-35.901
-34.274
-32.202
-29.74
-26.935
-23.841
-20.514
-17.002
-13.345
-9.581
-5.744
-1.872
1.994
5.826
9.606
13.323
16.975
20.567
24.102
27.594
31.058
34.508
37.959
41.423
44.912
48.438
52.015
55.655
59.371
63.174
67.068
71.062
75.161
79.371
83.7
88.154
92.727
97.415
102.207
107.086
112.036
117.041
122.076
127.122
132.164
137.192
142.208
147.212
152.196
157.143
162.028
166.823
171.513
176.088
180.536
184.861
189.06
193.135
197.107
200.98
204.737
208.347
211.752
214.881
217.685
220.125
222.172
223.807
224.996
225.705
225.912
225.581
224.677
223.161
220.969
218.058
214.423
210.076
205.072
199.486
193.376
186.789
179.777
172.378
164.639
156.609
148.323
139.823
131.16
122.396
113.614
104.888
96.264
87.771
79.415
71.179
63.066
55.079
47.219
39.497
31.923
24.511
17.286
10.273
3.487
-3.065
-9.389
-15.493
-21.371
-27.012
-32.398
-37.506
-42.317
-46.82
-50.997
-54.841
-58.35
-61.523
-64.372
-66.912
-69.155
-71.111
-72.789
-74.197
-75.348
-76.257
-76.938
-77.409
-77.686
-77.788
-77.733
-77.543
-77.234
-76.82
-76.32
-75.748
-75.118
-74.449
-73.75
-73.026
-72.289
-71.554
-70.818
-70.083
-69.358
-68.635
-67.925
-67.261
-66.645
-66.07
-65.593
-65.263
-65.029
-64.904
-64.914
-64.897
-65.112
-65.895
-66.802
-67.687
-67.854
-66.032
-62.987
-59.846
-57.792
-59.048
-63.255
-68.288
-72.712
-74.268
-72.434
-69.339
-66.23
-64.368
-64.624
-65.737
-66.921
-67.93
-68.264
-68.31
-68.406
-68.434
-68.458
-68.457
-68.347
-68.182
-68.01
-67.819
-67.617
-67.42
-67.225
-67.028
-66.831
-66.628
-66.413
-66.192
-65.971
-65.747
-65.525
-65.307
-65.092
-64.884
-64.684
-64.494
-64.312
-64.141
-63.979
-63.828
-63.687
-63.555
-63.432
-63.318
-63.21
-63.109
-63.012
-62.919
-62.827
-62.735
-62.642
-62.546
-62.445
-62.339
-62.226
-62.104
-61.974
-61.834
-61.683
-61.52
-61.346
-61.16
-60.961
-60.75
-60.527
-60.291
-60.044
-59.787
-59.519
-59.241
-58.956
-58.663
-58.364
-58.06
-57.752
-57.442
-57.131
-56.821
-56.512
-56.207
-55.905
-55.609
-55.32
-55.037
-54.762
-54.495
-54.237
-53.988
-53.747
-53.514
-53.29
-53.073
-52.863
-52.66
-52.462
-52.269
-52.079
-51.893
-51.709
-51.525
-51.341
-51.156
-50.969
-50.78
-50.586
-50.388
-50.184
-49.975
-49.76
-49.538
-49.31
-49.075
-48.834
-48.588
-48.336
-48.08
-47.821
-47.56
-47.298
-47.036
-46.777
-46.521
-46.269
-46.025
-45.789
-45.562
-45.347
-45.144
-44.956
-44.782
-44.623
-44.481
-44.356
-44.247
-44.156
-44.08
-44.021
-43.978
-43.948
-43.931
-43.924
-43.926
-43.934
-43.945
-43.955
-43.962
-43.962
-43.95
-43.923
-43.877
-43.808
-43.711
-43.582
-43.416
-43.21
-42.958
-42.657
-42.301
-41.888
-41.413
-40.874
-40.267
-39.589
-38.839
-38.014
-37.113
-36.135
-35.079
-33.945
-32.734
-31.446
-30.084
-28.649
-27.144
-25.574
-23.942
-22.253
-20.512
-18.726
-16.901
-15.043
-13.159
-11.258
-9.347
-7.436
-5.532
-3.647
-1.793
0.018
1.771
3.454
5.052
6.549
7.93
9.182
10.292
11.248
12.04
12.656
13.085
13.316
13.341
13.154
12.75
12.128
11.285
10.225
8.955
7.483
5.817
3.965
1.926
-0.3
-2.713
-5.311
-8.09
-11.041
-14.154
-17.416
-20.805
-24.302
-27.883
-31.518
-35.182
-38.847
-42.479
-46.047
-49.494
-52.746
-55.752
-58.484
-60.94
-63.174
-65.234
-67.141
-68.97
-70.832
-72.787
-74.855
-76.972
-78.935
-80.562
-81.778
-82.468
-82.479
-81.756
-80.26
-78.043
-75.409
-72.672
-70.006
-67.692
-66.112
-65.536
-66.317
-68.874
-73.348
-79.801
-88.448
-98.784
-109.4
-119.034
-126.189
-130.113
-132.113
-132.788
-130.716
-122.576
-101.888
-62.123
-0.97
79.946
174.963
275.002
372.122
460.437
535.535
596.634
644.926
682.088
709.894
727.715
732.244
717.814
679.222
614.457
525.069
418.918
306.626
198.043
102.811
24.984
-34.827
-76.188
-101.304
-110.476
-104.172
-86.681
-62.854
-40.033
-25.111
-19.716
-22.507
-28.954
-33.68
-34.969
-33.299
-30.762
-30.083
-31.76
-35.059
-38.941
-42.184
-44.446
-45.922
-46.657
-46.673
-46.044
-44.823
-43.176
-41.313
-39.349
-37.37
-35.508
-33.939
-32.748
-31.921
-31.365
-30.925
-30.474
-29.922
-29.2
-28.258
-27.084
-25.705
-24.153
-22.483
-20.749
-18.985
-17.214
-15.435
-13.616
-11.729
-9.772
-7.75
-5.674
-3.548
-1.342
0.99
3.484
6.166
9.056
12.168
15.529
19.151
23.025
27.114
31.367
35.747
40.24
44.842
49.549
54.351
59.231
64.17
69.162
74.205
79.287
84.402
89.537
94.691
99.879
105.121
110.434
115.824
121.281
126.791
132.343
137.919
143.494
149.044
154.546
159.983
165.359
170.665
175.887
181
185.965
190.75
195.341
199.723
203.886
207.824
211.525
214.992
218.247
221.291
224.108
226.661
228.88
230.716
232.14
233.127
233.673
233.757
233.351
232.432
230.986
228.993
226.438
223.286
219.483
215.007
209.871
204.115
197.821
191.051
183.849
176.261
168.325
160.087
151.6
142.908
134.04
125.038
115.951
106.844
97.806
88.896
80.148
71.576
63.167
54.918
46.843
38.95
31.245
23.737
16.433
9.351
2.522
-4.036
-10.314
-16.314
-22.051
-27.529
-32.742
-37.677
-42.315
-46.642
-50.652
-54.338
-57.69
-60.707
-63.39
-65.748
-67.801
-69.565
-71.05
-72.27
-73.231
-73.947
-74.433
-74.705
-74.781
-74.677
-74.411
-74
-73.466
-72.825
-72.093
-71.286
-70.414
-69.49
-68.527
-67.537
-66.53
-65.519
-64.512
-63.519
-62.552
-61.617
-60.724
-59.877
-59.083
-58.345
-57.668
-57.053
-56.503
-56.019
-55.601
-55.248
-54.961
-54.737
-54.575
-54.472
-54.426
-54.434
-54.493
-54.598
-54.748
-54.936
-55.161
-55.418
-55.704
-56.015
-56.348
-56.7
-57.066
-57.446
-57.834
-58.23
-58.629
-59.029
-59.428
-59.823
-60.214
-60.598
-60.974
-61.341
-61.698
-62.046
-62.383
-62.71
-63.026
-63.332
-63.628
-63.915
-64.193
-64.463
-64.726
-64.982
-65.232
-65.478
-65.72
-65.958
-66.193
-66.427
-66.659
-66.89
-67.12
-67.35
-67.58
-67.81
-68.04
-68.27
-68.501
-68.731
-68.963
-69.194
-69.425
-69.655
-69.885
-70.113
-70.34
-70.565
-70.788
-71.007
-71.224
-71.436
-71.645
-71.848
-72.046
-72.238
-72.423
-72.602
-72.773
-72.936
-73.091
-73.237
-73.375
-73.503
-73.622
-73.733
-73.834
-73.926
-74.008
-74.082
-74.147
-74.202
-74.25
-74.288
-74.318
-74.34
-74.354
-74.36
-74.358
-74.348
-74.331
-74.306
-74.274
-74.234
-74.188
-74.134
-74.075
-74.009
-73.938
-73.861
-73.78
-73.694
-73.605
-73.513
-73.419
-73.323
-73.227
-73.131
-73.035
-72.942
-72.852
-72.766
-72.684
-72.609
-72.541
-72.482
-72.432
-72.393
-72.368
-72.355
-72.359
-72.379
-72.417
-72.475
-72.554
-72.654
-72.778
-72.925
-73.097
-73.293
-73.516
-73.763
-74.036
-74.334
-74.657
-75.004
-75.372
-75.762
-76.172
-76.599
-77.041
-77.496
-77.96
-78.432
-78.908
-79.384
-79.856
-80.32
-80.772
-81.207
-81.621
-82.007
-82.362
-82.68
-82.956
-83.185
-83.362
-83.481
-83.538
-83.529
-83.448
-83.292
-83.056
-82.735
-82.327
-81.829
-81.237
-80.548
-79.762
-78.877
-77.891
-76.805
-75.618
-74.331
-72.944
-71.461
-69.882
-68.211
-66.452
-64.609
-62.686
-60.69
-58.626
-56.502
-54.324
-52.099
-49.837
-47.545
-45.233
-42.909
-40.583
-38.264
-35.964
-33.694
-31.469
-29.301
-27.206
-25.197
-23.292
-21.504
-19.849
-18.341
-16.99
-15.807
-14.804
-13.99
-13.377
-12.973
-12.784
-12.817
-13.073
-13.552
-14.255
-15.177
-16.309
-17.642
-19.169
-20.885
-22.794
-24.899
-27.2
-29.693
-32.37
-35.221
-38.237
-41.405
-44.706
-48.113
-51.593
-55.113
-58.646
-62.16
-65.627
-68.999
-72.191
-75.143
-77.824
-80.233
-82.424
-84.441
-86.281
-87.985
-89.645
-91.303
-92.966
-94.561
-95.858
-96.67
-96.933
-96.566
-95.514
-93.814
-91.515
-88.768
-85.921
-83.289
-81.069
-79.496
-78.799
-79.106
-80.569
-83.353
-87.515
-93.105
-100.289
-108.606
-116.858
-124.018
-128.862
-131.254
-132.539
-132.568
-129.892
-120.679
-98.533
-59.825
-4.097
65.396
141.431
218.661
293.993
366.105
435.546
500.581
557.92
604.368
637.983
660.338
674.048
680.37
676.971
656.8
612.446
539.893
441.788
328.407
213.706
110.92
28.32
-31.052
-68.313
-86.594
-87.731
-75.407
-54.827
-32.07
-15.482
-8.955
-11.674
-19.989
-26.928
-28.975
-26.527
-21.52
-17.822
-17.171
-18.898
-22.036
-25.087
-27.329
-28.958
-30.092
-30.772
-30.937
-30.519
-29.571
-28.262
-26.781
-25.271
-23.867
-22.73
-22.023
-21.799
-22.013
-22.554
-23.274
-24.023
-24.664
-25.075
-25.155
-24.873
-24.24
-23.26
-21.935
-20.273
-18.291
-16.029
-13.536
-10.842
-7.965
-4.931
-1.77
1.473
4.755
8.065
11.421
14.85
18.371
21.976
25.637
29.338
33.08
36.867
40.702
44.578
48.486
52.43
56.429
60.504
64.665
68.915
73.239
77.626
82.07
86.58
91.167
95.84
100.6
105.446
110.381
115.411
120.535
125.747
131.03
136.366
141.74
147.139
152.553
157.965
163.356
168.706
173.992
179.191
184.279
189.233
194.025
198.63
203.021
207.175
211.07
214.686
218.001
220.993
223.642
225.93
227.839
229.353
230.457
231.136
231.38
231.179
230.527
229.419
227.852
225.825
223.34
220.402
217.017
213.193
208.942
204.276
199.212
193.765
187.955
181.804
175.333
168.566
161.528
154.247
146.748
139.06
131.212
123.232
115.149
106.994
98.795
90.58
82.379
74.218
66.126
58.129
50.251
42.516
34.948
27.568
20.395
13.447
6.741
0.291
-5.889
-11.788
-17.397
-22.709
-27.717
-32.418
-36.809
-40.889
-44.66
-48.124
-51.285
-54.15
-56.723
-59.015
-61.033
-62.788
-64.292
-65.557
-66.595
-67.42
-68.044
-68.484
-68.752
-68.863
-68.832
-68.674
-68.401
-68.029
-67.57
-67.038
-66.445
-65.804
-65.125
-64.42
-63.697
-62.967
-62.237
-61.517
-60.811
-60.128
-59.472
-58.849
-58.261
-57.712
-57.206
-56.743
-56.325
-55.952
-55.625
-55.343
-55.104
-54.907
-54.751
-54.633
-54.551
-54.502
-54.484
-54.492
-54.525
-54.58
-54.652
-54.739
-54.839
-54.948
-55.064
-55.184
-55.306
-55.429
-55.549
-55.665
-55.776
-55.879
-55.975
-56.06
-56.136
-56.201
-56.254
-56.295
-56.325
-56.343
-56.349
-56.345
-56.329
-56.304
-56.269
-56.226
-56.174
-56.116
-56.052
-55.982
-55.908
-55.831
-55.751
-55.669
-55.586
-55.501
-55.416
-55.331
-55.246
-55.161
-55.076
-54.993
-54.91
-54.828
-54.747
-54.666
-54.587
-54.508
-54.43
-54.353
-54.276
-54.198
-54.121
-54.043
-53.965
-53.885
-53.805
-53.723
-53.64
-53.554
-53.467
-53.376
-53.284
-53.188
-53.09
-52.989
-52.886
-52.78
-52.673
-52.563
-52.451
-52.339
-52.225
-52.11
-51.994
-51.878
-51.762
-51.646
-51.531
-51.416
-51.302
-51.188
-51.076
-50.966
-50.856
-50.749
-50.643
-50.539
-50.437
-50.338
-50.242
-50.149
-50.061
-49.976
-49.896
-49.821
-49.751
-49.688
-49.631
-49.581
-49.539
-49.504
-49.479
-49.463
-49.456
-49.461
-49.477
-49.505
-49.546
-49.601
-49.67
-49.753
-49.853
-49.968
-50.1
-50.249
-50.416
-50.601
-50.805
-51.026
-51.265
-51.522
-51.795
-52.084
-52.387
-52.704
-53.033
-53.372
-53.719
-54.071
-54.427
-54.783
-55.137
-55.485
-55.824
-56.149
-56.457
-56.745
-57.007
-57.239
-57.438
-57.6
-57.719
-57.791
-57.812
-57.779
-57.685
-57.528
-57.302
-57.004
-56.629
-56.176
-55.64
-55.018
-54.309
-53.511
-52.622
-51.64
-50.566
-49.399
-48.14
-46.79
-45.35
-43.823
-42.211
-40.519
-38.75
-36.91
-35.004
-33.037
-31.016
-28.949
-26.841
-24.702
-22.539
-20.362
-18.18
-16.002
-13.841
-11.709
-9.621
-7.59
-5.632
-3.763
-1.998
-0.355
1.153
2.513
3.712
4.739
5.583
6.232
6.675
6.902
6.907
6.685
6.233
5.55
4.636
3.499
2.148
0.59
-1.17
-3.135
-5.309
-7.692
-10.284
-13.079
-16.066
-19.234
-22.567
-26.04
-29.63
-33.311
-37.049
-40.818
-44.589
-48.324
-51.99
-55.524
-58.839
-61.882
-64.629
-67.086
-69.333
-71.433
-73.409
-75.344
-77.354
-79.481
-81.741
-84.039
-86.076
-87.627
-88.605
-88.888
-88.411
-87.202
-85.215
-82.586
-79.812
-77.303
-75.331
-74.242
-74.213
-75.37
-78.102
-82.668
-88.902
-96.663
-105.801
-115.475
-124.558
-131.995
-136.122
-136.46
-134.108
-128.679
-119.007
-101.925
-71.439
-24.508
38.59
114.485
196.108
278.1
357.578
432.602
502.15
564.048
615.224
654.038
681.105
697.915
705.16
700.592
678.178
631.716
558.151
460.14
346.743
230.322
123.081
33.455
-34.192
-78.994
-103.044
-108.287
-98.31
-78.777
-55.192
-34.586
-22.024
-17.932
-20.676
-25.872
-29.148
-29.669
-28.094
-26.486
-27.18
-30.242
-34.889
-40.078
-44.464
-47.638
-49.651
-50.406
-50.114
-49.044
-47.307
-45.183
-42.993
-40.922
-39.219
-38.136
-37.709
-37.877
-38.544
-39.523
-40.642
-41.755
-42.668
-43.215
-43.341
-43.05
-42.376
-41.355
-39.977
-38.235
-36.16
-33.798
-31.193
-28.377
-25.362
-22.169
-18.838
-15.423
-11.969
-8.494
-4.982
-1.404
2.254
5.983
9.751
13.543
17.358
21.201
25.073
28.969
32.88
36.811
40.782
44.813
48.92
53.104
57.354
61.657
66.01
70.422
74.907
79.475
84.128
88.869
93.7
98.629
103.659
108.783
113.986
119.251
124.567
129.92
135.301
140.695
146.084
151.448
156.764
162.01
167.163
172.197
177.085
181.801
186.317
190.608
194.653
198.428
201.91
205.075
207.903
210.371
212.46
214.153
215.43
216.276
216.676
216.621
216.1
215.105
213.633
211.679
209.245
206.331
202.943
199.087
194.772
190.01
184.815
179.205
173.196
166.81
160.07
152.999
145.623
137.97
130.068
121.946
113.634
105.164
96.566
87.871
79.111
70.318
61.522
52.754
44.043
35.419
26.91
18.543
10.343
2.334
-5.46
-13.02
-20.325
-27.359
-34.106
-40.551
-46.684
-52.494
-57.974
-63.118
-67.923
-72.385
-76.507
-80.289
-83.735
-86.852
-89.645
-92.123
-94.296
-96.175
-97.772
-99.1
-100.172
-101.004
-101.61
-102.006
-102.208
-102.232
-102.094
-101.811
-101.398
-100.871
-100.245
-99.535
-98.757
-97.923
-97.048
-96.144
-95.222
-94.294
-93.369
-92.458
-91.569
-90.709
-89.884
-89.1
-88.363
-87.676
-87.042
-86.465
-85.944
-85.483
-85.08
-84.737
-84.451
-84.222
-84.048
-83.927
-83.857
-83.834
-83.857
-83.922
-84.026
-84.166
-84.338
-84.539
-84.767
-85.018
-85.288
-85.576
-85.877
-86.19
-86.512
-86.841
-87.175
-87.512
-87.85
-88.189
-88.527
-88.863
-89.197
-89.526
-89.852
-90.174
-90.49
-90.802
-91.109
-91.411
-91.708
-92
-92.287
-92.569
-92.847
-93.121
-93.39
-93.655
-93.915
-94.172
-94.425
-94.673
-94.917
-95.156
-95.391
-95.621
-95.846
-96.065
-96.277
-96.483
-96.682
-96.874
-97.057
-97.232
-97.399
-97.556
-97.705
-97.844
-97.974
-98.096
-98.209
-98.313
-98.409
-98.499
-98.581
-98.658
-98.73
-98.798
-98.864
-98.928
-98.992
-99.058
-99.126
-99.198
-99.277
-99.363
-99.459
-99.566
-99.685
-99.819
-99.968
-100.134
-100.319
-100.523
-100.747
-100.994
-101.262
-101.552
-101.865
-102.2
-102.556
-102.933
-103.33
-103.744
-104.176
-104.621
-105.078
-105.545
-106.018
-106.495
-106.971
-107.444
-107.907
-108.359
-108.793
-109.205
-109.59
-109.943
-110.259
-110.532
-110.759
-110.934
-111.051
-111.107
-111.097
-111.016
-110.859
-110.624
-110.305
-109.901
-109.407
-108.821
-108.142
-107.368
-106.499
-105.533
-104.472
-103.315
-102.063
-100.719
-99.284
-97.761
-96.155
-94.469
-92.708
-90.879
-88.987
-87.04
-85.044
-83.008
-80.94
-78.847
-76.74
-74.628
-72.519
-70.426
-68.359
-66.328
-64.347
-62.43
-60.59
-58.841
-57.2
-55.678
-54.292
-53.056
-51.982
-51.081
-50.363
-49.839
-49.517
-49.405
-49.511
-49.84
-50.397
-51.183
-52.197
-53.437
-54.895
-56.56
-58.422
-60.473
-62.709
-65.127
-67.721
-70.489
-73.424
-76.519
-79.763
-83.132
-86.594
-90.116
-93.666
-97.22
-100.759
-104.255
-107.676
-110.982
-114.121
-117.054
-119.731
-122.082
-124.07
-125.682
-126.956
-128.011
-128.984
-129.98
-131.131
-132.577
-134.384
-136.553
-138.943
-141.265
-143.245
-144.642
-145.219
-144.729
-142.993
-139.993
-135.969
-131.367
-126.703
-122.54
-119.408
-117.9
-118.681
-122.22
-128.681
-138.02
-149.489
-161.511
-172.481
-180.572
-184.766
-185.758
-183.952
-178.604
-166.932
-143.454
-102.513
-40.986
40.356
136.824
240.534
342.885
436.59
515.546
576.722
620.059
646.735
658.876
656.693
637.439
597.066
532.09
443.44
337.833
226.205
121.362
32.826
-35.357
-83.127
-114.3
-132.197
-137.744
-133.016
-119.76
-101.715
-85.464
-74.347
-69.467
-69.219
-68.903
-66.544
-62.398
-57.799
-55.489
-56.243
-59.15
-63.229
-67.032
-69.729
-71.211
-71.3
-70.06
-67.783
-64.734
-61.202
-57.554
-54.092
-51.092
-48.879
-47.576
-47.111
-47.367
-48.144
-49.215
-50.399
-51.482
-52.219
-52.477
-52.199
-51.366
-50.021
-48.199
-45.919
-43.229
-40.187
-36.839
-33.233
-29.404
-25.38
-21.202
-16.919
-12.577
-8.223
-3.885
0.421
4.685
8.905
13.084
17.228
21.349
25.462
29.579
33.714
37.878
42.082
46.341
50.671
55.084
59.594
64.211
68.943
73.792
78.762
83.852
89.063
94.396
99.855
105.441
111.148
116.966
122.882
128.874
134.923
141.007
147.096
153.167
159.201
165.183
171.111
176.984
182.788
188.507
194.111
199.569
204.869
209.996
214.939
