姓名
出生日期
记录日期,2026-03-21 22:05:13 +0000
分类,窦性心律
症状,
软件版本,1.90
设备,"Watch7,2"
采样率,512赫兹


导联,导联I
单位,µV

-433.844
-558.112
-626.052
-625.848
-565.514
-464.714
-343.532
-213.076
-74.24
75.514
237.466
406.762
571.669
720.616
844.96
940.846
1010.019
1054.451
1074.182
1067.565
1032.004
968.647
884.567
791.984
706.419
640.672
601.766
590.949
603.36
633.547
677.53
730.823
790.51
851.849
908.315
957.999
1002.87
1049.538
1106.85
1174.884
1241.892
1285.834
1280.41
1210.244
1078.786
907.219
726.445
561.622
423.792
310.68
213.919
129.556
60.548
12.229
-14.763
-29.928
-49.807
-89.917
-157.274
-246.681
-344.187
-434.586
-507.321
-559.987
-597.797
-628.011
-656.684
-686.734
-716.223
-743.083
-766.859
-787.848
-808.771
-831.028
-853.386
-874.427
-892.103
-906.027
-918.442
-931.855
-948.299
-967.275
-984.918
-996.265
-996.659
-984.98
-965.196
-944.136
-930.14
-928.919
-940.382
-959.675
-978.014
-986.219
-979.346
-957.896
-927.384
-896.982
-874.825
-864.435
-865.254
-871.469
-875.282
-872.092
-859.609
-839.944
-818.366
-798.054
-781.058
-767.2
-753.935
-739.95
-724.622
-707.834
-690.427
-672.734
-654.682
-636.296
-617.489
-598.269
-578.785
-559.152
-539.464
-519.844
-500.416
-481.269
-462.455
-444.013
-425.96
-408.312
-391.092
-374.308
-357.95
-342.017
-326.51
-311.428
-296.778
-282.55
-268.724
-255.273
-242.162
-229.362
-216.853
-204.618
-192.641
-180.909
-169.412
-158.144
-147.102
-136.282
-125.674
-115.262
-105.032
-94.967
-85.053
-75.276
-65.62
-56.07
-46.61
-37.221
-27.888
-18.592
-9.315
-0.039
9.258
18.593
27.984
37.446
46.993
56.64
66.401
76.287
86.309
96.477
106.799
117.283
127.937
138.768
149.78
160.979
172.367
183.946
195.718
207.682
219.835
232.172
244.688
257.375
270.225
283.228
296.371
309.641
323.022
336.499
350.052
363.663
377.311
390.975
404.639
418.284
431.893
445.451
458.94
472.349
485.662
498.861
511.932
524.863
537.641
550.264
562.729
575.031
587.17
599.132
610.889
622.423
633.695
644.656
655.287
665.564
675.464
685.019
694.253
703.165
711.796
720.136
728.045
735.39
742.015
747.619
751.954
754.845
755.993
755.508
754.055
751.838
748.914
745.159
739.645
732.927
726.962
723.435
724.317
729.49
736.517
743.227
747.414
748.094
745.831
740.883
733.545
723.938
711.672
696.868
679.936
661.315
641.808
622.06
602.388
583.099
564.423
546.426
529.194
512.796
497.029
481.658
466.516
451.341
435.862
419.9
403.228
385.607
366.98
347.371
326.836
305.559
283.761
261.588
239.187
216.718
194.263
171.862
149.534
127.218
104.83
82.345
59.77
37.114
14.412
-8.309
-31.03
-53.712
-76.314
-98.825
-121.246
-143.589
-165.867
-188.085
-210.23
-232.288
-254.237
-276.049
-297.7
-319.17
-340.44
-361.497
-382.327
-402.908
-423.213
-443.21
-462.854
-482.084
-500.871
-519.205
-537.119
-554.727
-572.147
-589.498
-606.929
-624.596
-642.585
-660.948
-679.604
-698.274
-716.733
-734.796
-752.229
-768.871
-784.592
-799.248
-812.966
-826.227
-839.396
-852.835
-867.078
-882.449
-899.565
-919.524
-942.6
-968.417
-996.315
-1024.33
-1051.073
-1076.465
-1100.121
-1122.842
-1145.232
-1165.838
-1182.658
-1191.515
-1186.769
-1163.717
-1119.048
-1053.634
-972.348
-882.833
-794.096
-712.897
-644.022
-590.004
-551.668
-531.024
-530.315
-552.197
-599.431
-672.312
-768.611
-883.185
-1007.666
-1132.101
-1247.048
-1345.109
-1422.258
-1479.186
-1518.9
-1544.944
-1561.854
-1572.256
-1578.303
-1583.564
-1589.895
-1598.803
-1611.143
-1624.927
-1638
-1648.489
-1654.437
-1655.592
-1653.97
-1653.437
-1659.202
-1675.466
-1700.276
-1723.21
-1726.953
-1691.646
-1604.138
-1464.704
-1286.585
-1091.661
-901.913
-731.653
-586.955
-467.712
-370.592
-292.268
-227.722
-169.359
-108.032
-34.992
53.002
153.097
257.174
355.233
442.056
516.786
583.164
647.659
713.616
782.386
853.182
923.214
991.381
1057.394
1121.761
1186.181
1250.978
1315.684
1379.096
1438.808
1494.949
1549.532
1604.928
1664.835
1729.176
1794.469
1857.809
1915.518
1967.358
2016.892
2066.526
2118.521
2173.235
2228.406
2282.688
2335.278
2385.828
2434.987
2483.01
2529.807
2575.409
2619.769
2662.92
2705.023
2746.185
2786.485
2826.025
2864.903
2903.198
2940.978
2978.307
3015.249
3051.867
3088.233
3124.407
3160.432
3196.345
3232.185
3267.978
3303.757
3339.55
3375.387
3411.304
3447.335
3483.51
3519.854
3556.381
3593.106
3630.049
3667.23
3704.679
3742.413
3780.43
3818.728
3857.289
3896.087
3935.084
3974.217
4013.397
4052.54
4091.565
4130.414
4169.054
4207.425
4245.436
4282.958
4319.805
4355.822
4390.912
4424.964
4457.868
4489.57
4520.068
4549.52
4578.261
4606.573
4634.607
4662.45
4690.116
4717.597
4744.9
4771.834
4797.961
4822.879
4846.321
4868.184
4888.513
4907.333
4924.535
4940.179
4954.567
4968.023
4980.842
4993.125
5004.761
5015.728
5026.148
5035.992
5045.066
5053.103
5060.033
5066.43
5073.261
5081.698
5092.623
5106.297
5123.045
5142.656
5163.656
5182.998
5195.28
5195.881
5186.277
5176.689
5185.27
5227.686
5300.357
5371.26
5382.43
5270.538
4999.505
4580.129
4070.277
3552.548
3097.3
2740.792
2483.634
2305.522
2188.222
2123.75
2107.406
2126.938
2155.262
2157.493
2107.761
2001.488
1857.396
1707.286
1578.935
1485.606
1424.156
1380.876
1342.838
1302.353
1257.41
1209.05
1154.718
1089.702
1010.369
917.58
821.929
739.434
684.464
663.307
667.654
677.628
670.236
628.344
549.846
449.022
350.123
277.769
245.456
249.551
271.72
286.638
273.638
225.772
151.275
69.662
2.801
-35.269
-42.839
-30.346
-15.726
-15.188
-36.613
-77.737
-127.325
-171.73
-202.27
-217.127
-221.421
-223.818
-230.192
-242.662
-259.896
-278.175
-295.331
-310.898
-325.189
-339.196
-352.782
-364.817
-374.492
-381.414
-386.394
-390.994
-395.955
-400.816
-403.293
-400.734
-391.508
-375.414
-355.428
-335.087
-317.821
-307.289
-303.298
-304.742
-310.272
-316.844
-324.952
-334.965
-343.513
-343.898
-321.677
-260.147
-148.872
12.773
211.595
425.981
635.419
825.431
990.514
1130.81
1246.908
1339.151
1408.856
1461.477
1508.192
1562.002
1632.149
1719.1
1813.269
1900.78
1972.347
2030.562
2091.134
2173.631
2285.31
2408.076
2496.793
2494.17
2358.251
2085.378
1715.724
1318.251
960.054
680.527
485.231
356.605
274.745
232.117
230.033
266.797
327.386
381.73
398.365
360.704
273.869
162.337
56.39
-22.477
-67.061
-83.442
-83.875
-79.878
-79.568
-87.839
-108.531
-144.027
-194.145
-254.598
-315.652
-365.355
-393.74
-397.235
-382.089
-362.768
-357.085
-378.92
-431.779
-506.658
-584.049
-641.884
-663.973
-644.837
-592.712
-524.329
-456.813
-402.919
-364.458
-332.853
-295.688
-240.588
-162.802
-69.494
25.052
103.629
152.928
171.15
164.846
143.521
114.75
76.711
20.771
-61.355
-173.917
-311.361
-459.514
-602.319
-724.639
-816.515
-874.934
-901.336
-901.789
-885.457
-862.343
-842.577
-833.19
-836.994
-852.939
-875.779
-899.577
-919.557
-932.005
-936.817
-935.799
-930.765
-925.412
-922.46
-923.491
-930.824
-943.774
-960.001
-975.727
-984.356
-981.563
-965.818
-939.925
-912.236
-890.586
-880.631
-883.211
-892.478
-902
-906.748
-904.566
-898.451
-891.928
-887.201
-885.547
-885.694
-886.13
-886.417
-886.2
-885.774
-885.492
-885.21
-884.79
-884.085
-882.953
-881.338
-879.226
-876.613
-873.506
-869.946
-865.976
-861.631
-856.957
-852.007
-846.816
-841.421
-835.866
-830.19
-824.457
-818.748
-813.125
-807.645
-802.354
-797.276
-792.436
-787.851
-783.519
-779.431
-775.572
-771.922
-768.468
-765.201
-762.106
-759.165
-756.353
-753.636
-750.992
-748.404
-745.86
-743.35
-740.871
-738.418
-735.995
-733.614
-731.283
-729.014
-726.814
-724.69
-722.652
-720.71
-718.877
-717.167
-715.59
-714.158
-712.88
-711.766
-710.825
-710.066
-709.494
-709.116
-708.936
-708.96
-709.193
-709.641
-710.307
-711.194
-712.303
-713.636
-715.191
-716.967
-718.96
-721.164
-723.573
-726.178
-728.973
-731.945
-735.084
-738.376
-741.809
-745.367
-749.034
-752.793
-756.627
-760.518
-764.446
-768.394
-772.342
-776.271
-780.161
-783.992
-787.745
-791.402
-794.943
-798.349
-801.603
-804.688
-807.588
-810.287
-812.772
-815.029
-817.045
-818.812
-820.318
-821.556
-822.52
-823.204
-823.604
-823.718
-823.543
-823.081
-822.332
-821.299
-819.986
-818.397
-816.539
-814.418
-812.043
-809.422
-806.564
-803.481
-800.184
-796.683
-792.993
-789.126
-785.096
-780.918
-776.604
-772.171
-767.632
-763.001
-758.293
-753.521
-748.699
-743.838
-738.952
-734.051
-729.147
-724.25
-719.369
-714.513
-709.691
-704.91
-700.177
-695.499
-690.88
-686.325
-681.839
-677.423
-673.08
-668.814
-664.623
-660.51
-656.473
-652.511
-648.622
-644.802
-641.046
-637.345
-633.693
-630.081
-626.503
-622.949
-619.411
-615.881
-612.353
-608.821
-605.277
-601.713
-598.12
-594.487
-590.804
-587.06
-583.243
-579.344
-575.35
-571.25
-567.032
-562.684
-558.193
-553.545
-548.726
-543.715
-538.5
-533.073
-527.432
-521.58
-515.523
-509.273
-502.845
-496.258
-489.535
-482.694
-475.761
-468.76
-461.714
-454.637
-447.545
-440.451
-433.354
-426.247
-419.107
-411.888
-404.564
-397.132
-389.605
-382.022
-374.414
-366.771
-359.074
-351.307
-343.388
-335.186
-326.535
-317.201
-307.04
-296.062
-284.388
-272.245
-260.003
-248.113
-237.06
-227.404
-219.577
-213.808
-210.16
-208.523
-208.602
-210.002
-212.34
-215.208
-218.267
-221.314
-224.226
-226.971
-229.65
-232.425
-235.388
-238.587
-242.018
-245.605
-249.266
-252.907
-256.37
-259.467
-262.052
-264.033
-265.399
-266.22
-266.568
-266.513
-266.143
-265.581
-264.949
-264.329
-263.713
-262.973
-261.952
-260.515
-258.536
-255.877
-252.442
-248.197
-243.194
-237.637
-231.783
-225.926
-220.385
-215.528
-211.73
-209.293
-208.476
-209.487
-212.462
-217.371
-224.126
-232.147
-240.144
-246.805
-250.636
-250.631
-247.171
-240.406
-229.284
-211.31
-181.518
-134.97
-69.954
12.122
106.165
205.315
304.891
401.579
492.787
576.813
650.637
711.747
760.517
797.732
823.634
836.06
827.435
789.017
715.894
609.06
478.449
339.661
207.391
93.221
3.44
-60.7
-99.408
-113.959
-107.692
-85.986
-56.642
-28.645
-9.115
-1.097
-3.797
-13.891
-26.294
-37.198
-44.338
-45.34
-40.815
-32.381
-21.713
-12.991
-8.025
-6.897
-9.37
-12.279
-13.656
-12.925
-9.509
-4.784
0.215
5.297
9.961
14.355
18.586
22.328
25.545
28.269
30.523
32.505
34.413
36.386
38.604
41.214
44.251
47.71
51.589
55.876
60.567
65.641
71.039
76.689
82.54
88.556
94.71
100.96
107.248
113.521
119.747
125.929
132.097
138.258
144.391
150.455
156.417
162.269
168.014
173.652
179.171
184.56
189.817
194.96
200.012
204.983
209.876
214.675
219.364
223.941
228.418
232.813
237.142
241.412
245.627
249.798
253.937
258.054
262.148
266.211
270.232
274.204
278.126
281.996
285.811
289.562
293.239
296.829
300.321
303.702
306.96
310.077
313.037
315.826
318.431
320.841
323.047
325.036
326.798
328.321
329.597
330.616
331.37
331.85
332.05
331.963
331.586
330.916
329.953
328.697
327.149
325.314
323.195
320.799
318.135
315.211
312.039
308.63
304.999
301.161
297.131
292.928
288.569
284.073
279.46
274.751
269.965
265.124
260.247
255.357
250.474
245.617
240.807
236.062
231.403
226.847
222.411
218.113
213.968
209.99
206.192
202.587
199.185
195.996
193.027
190.286
187.777
185.504
183.47
181.675
180.12
178.801
177.717
176.861
176.228
175.81
175.6
175.587
175.761
176.111
176.624
177.288
178.089
179.014
180.048
181.176
182.384
183.656
184.978
186.334
187.711
189.092
190.466
191.816
193.132
194.4
195.608
196.745
197.8
198.765
199.63
200.387
201.029
201.551
201.947
202.213
202.347
202.348
202.213
201.943
201.541
201.007
200.344
199.558
198.652
197.632
196.505
195.279
193.959
192.557
191.08
189.537
187.94
186.297
184.62
182.918
181.202
179.482
177.77
176.074
174.406
172.775
171.191
169.664
168.203
166.817
165.514
164.302
163.187
162.176
161.275
160.487
159.818
159.271
158.848
158.55
158.378
158.333
158.412
158.613
158.934
159.369
159.913
160.559
161.302
162.133
163.043
164.023
165.064
166.155
167.285
168.441
169.612
170.783
171.939
173.06
174.131
175.13
176.039
176.836
177.501
178.015
178.358
178.514
178.467
178.2
177.697
176.943
175.925
174.634
173.061
171.202
169.053
166.613
163.887
160.884
157.612
154.079
150.288
146.236
141.922
137.348
132.524
127.455
122.152
116.621
110.877
104.95
98.88
92.707
86.472
80.203
73.933
67.711
61.615
55.719
50.074
44.694
39.554
34.645
29.987
25.572
21.328
17.182
13.091
9.091
5.336
1.963
-0.976
-3.412
-5.23
-6.358
-6.769
-6.515
-5.785
-4.739
-3.466
-2.342
-2.053
-3.16
-5.893
-9.563
-12.973
-15.729
-18.659
-24.185
-34.482
-49.462
-66.982
-82.835
-93.563
-98.513
-97.847
-91.676
-78.084
-51.927
-8.498
54.025
133.978
225.649
322.443
419.535
513.231
601.349
681.972
752.531
811.7
858.928
894.098
916.263
920.942
901.19
849.605
762.181
642.686
502.044
356.233
221.731
109.522
24.891
-32.196
-65.773
-79.098
-75.976
-61.535
-40.495
-19.624
-5.085
0.447
-3.729
-15.014
-28.546
-40.221
-46.827
-47.088
-42.597
-36.334
-31.466
-30.141
-32.49
-37.106
-41.963
-45.704
-47.923
-48.798
-49
-48.934
-48.656
-48.243
-47.729
-47.217
-46.955
-47.174
-47.923
-49.149
-50.731
-52.47
-54.179
-55.68
-56.788
-57.339
-57.254
-56.52
-55.163
-53.249
-50.844
-48.01
-44.823
-41.357
-37.677
-33.836
-29.89
-25.893
-21.902
-17.984
-14.183
-10.531
-7.049
-3.745
-0.621
2.324
5.102
7.73
10.221
12.585
14.831
16.968
19.007
20.961
22.844
24.672
26.457
28.211
29.943
31.664
33.378
35.093
36.809
38.53
40.258
41.996
43.746
45.512
47.295
49.094
50.908
52.734
54.57
56.408
58.241
60.061
61.856
63.617
65.331
66.986
68.569
70.065
71.461
72.742
73.893
74.9
75.747
76.421
76.908
77.194
77.267
77.115
76.728
76.096
75.21
74.064
72.651
70.968
69.011
66.779
64.271
61.49
58.439
55.122
51.546
47.718
43.65
39.352
34.838
30.12
25.215
20.139
14.91
9.546
4.065
-1.512
-7.166
-12.877
-18.623
-24.384
-30.14
-35.871
-41.556
-47.177
-52.715
-58.152
-63.47
-68.654
-73.688
-78.558
-83.251
-87.756
-92.061
-96.157
-100.037
-103.693
-107.121
-110.316
-113.277
-116.002
-118.491
-120.746
-122.77
-124.567
-126.142
-127.502
-128.654
-129.606
-130.367
-130.948
-131.358
-131.61
-131.714
-131.684
-131.53
-131.266
-130.904
-130.458
-129.94
-129.362
-128.738
-128.078
-127.396
-126.702
-126.008
-125.324
-124.659
-124.024
-123.427
-122.876
-122.377
-121.939
-121.566
-121.263
-121.034
-120.884
-120.814
-120.826
-120.921
-121.1
-121.362
-121.707
-122.132
-122.634
-123.212
-123.86
-124.576
-125.354
-126.188
-127.073
-128.004
-128.972
-129.972
-130.995
-132.036
-133.084
-134.133
-135.174
-136.198
-137.198
-138.164
-139.089
-139.964
-140.781
-141.532
-142.21
-142.808
-143.318
-143.733
-144.048
-144.256
-144.35
-144.327
-144.18
-143.905
-143.499
-142.959
-142.281
-141.464
-140.507
-139.407
-138.166
-136.783
-135.26
-133.598
-131.801
-129.871
-127.814
-125.634
-123.338
-120.931
-118.423
-115.819
-113.13
-110.363
-107.528
-104.636
-101.696
-98.72
-95.72
-92.707
-89.697
-86.704
-83.746
-80.839
-78
-75.248
-72.602
-70.08
-67.7
-65.479
-63.43
-61.568
-59.908
-58.464
-57.248
-56.271
-55.542
-55.068
-54.851
-54.895
-55.197
-55.75
-56.547
-57.576
-58.834
-60.32
-62.036
-63.98
-66.149
-68.538
-71.133
-73.925
-76.89
-79.998
-83.219
-86.517
-89.857
-93.209
-96.539
-99.806
-102.973
-105.974
-108.728
-111.176
-113.277
-115.024
-116.465
-117.654
-118.643
-119.542
-120.496
-121.618
-122.977
-124.546
-126.154
-127.598
-128.745
-129.436
-129.457
-128.659
-126.927
-124.262
-120.91
-117.211
-113.405
-109.732
-106.803
-105.429
-106.252
-109.865
-115.677
-121.902
-127.752
-132.654
-136.862
-142.389
-149.262
-156.51
-163.023
-165.573
-161.511
-147.738
-119.414
-72.218
-2.755
89.123
199.387
320.335
442.009
555.693
654.426
734.544
796.157
839.856
866.214
874.664
861.422
822.614
756.608
664.023
551.084
427.674
303.458
188.432
89.075
8.176
-52.212
-92.08
-111.933
-112.855
-98.687
-75.433
-50.183
-29.507
-17.474
-13.874
-15.897
-19.874
-21.796
-20.75
-17.54
-13.277
-10.634
-10.412
-12.213
-15.929
-19.991
-23.457
-26.227
-27.835
-28.5
-28.61
-28.246
-27.657
-27.035
-26.482
-26.168
-26.281
-26.976
-28.264
-30.029
-32.091
-34.22
-36.203
-37.895
-39.155
-39.848
-39.924
-39.381
-38.249
-36.611
-34.541
-32.095
-29.34
-26.34
-23.146
-19.822
-16.424
-13.007
-9.628
-6.332
-3.146
-0.095
2.81
5.566
8.173
10.641
12.988
15.223
17.356
19.396
21.348
23.225
25.04
26.805
28.535
30.239
31.929
33.612
35.296
36.987
38.687
40.398
42.121
43.855
45.604
47.368
49.148
50.944
52.754
54.575
56.405
58.236
60.063
61.875
63.663
65.417
67.123
68.77
70.344
71.83
73.215
74.483
75.619
76.607
77.432
78.08
78.535
78.782
78.809
78.603
78.151
77.443
76.47
75.223
73.696
71.883
69.779
67.384
64.695
61.714
58.443
54.886
51.049
46.94
42.568
37.945
33.082
27.995
22.7
17.212
11.551
5.736
-0.213
-6.276
-12.431
-18.655
-24.927
-31.223
-37.521
-43.799
-50.035
-56.205
-62.29
-68.269
-74.122
-79.83
-85.375
-90.741
-95.912
-100.872
-105.61
-110.113
-114.371
-118.374
-122.115
-125.588
-128.788
-131.713
-134.359
-136.729
-138.822
-140.641
-142.191
-143.477
-144.505
-145.283
-145.821
-146.127
-146.212
-146.089
-145.77
-145.266
-144.593
-143.762
-142.789
-141.687
-140.471
-139.154
-137.751
-136.277
-134.744
-133.166
-131.557
-129.929
-128.294
-126.663
-125.048
-123.458
-121.904
-120.394
-118.935
-117.536
-116.202
-114.94
-113.754
-112.647
-111.624
-110.684
-109.831
-109.064
-108.382
-107.785
-107.269
-106.834
-106.474
-106.187
-105.966
-105.808
-105.705
-105.653
-105.643
-105.669
-105.723
-105.797
-105.885
-105.978
-106.068
-106.147
-106.208
-106.243
-106.243
-106.202
-106.112
-105.965
-105.754
-105.472
-105.113
-104.672
-104.144
-103.523
-102.805
-101.988
-101.067
-100.042
-98.91
-97.67
-96.323
-94.869
-93.31
-91.648
-89.888
-88.034
-86.09
-84.063
-81.959
-79.785
-77.55
-75.261
-72.928
-70.56
-68.169
-65.764
-63.358
-60.965
-58.6
-56.281
-54.023
-51.845
-49.765
-47.802
-45.975
-44.3
-42.793
-41.468
-40.339
-39.417
-38.717
-38.252
-38.029
-38.056
-38.338
-38.876
-39.67
-40.716
-42.005
-43.525
-45.266
-47.221
-49.394
-51.785
-54.394
-57.215
-60.245
-63.471
-66.879
-70.451
-74.153
-77.958
-81.835
-85.752
-89.685
-93.603
-97.468
-101.239
-104.849
-108.213
-111.279
-114.018
-116.434
-118.596
-120.576
-122.434
-124.295
-126.31
-128.57
-131.107
-133.824
-136.454
-138.751
-140.539
-141.604
-141.723
-140.715
-138.463
-135.1
-131.018
-126.625
-122.284
-118.372
-115.559
-114.811
-116.948
-122.524
-130.878
-140.33
-149.618
-157.466
-163.987
-170.809
-178.669
-188.154
-198.139
-204.589
-202.443
-185.435
-147.498
-85.375
0.382
105.466
221.752
339.297
449.541
545.329
622.65
681.017
720.709
742.602
745.984
727.199
681.801
606.494
502.812
378.959
248.44
126.767
25.604
-49.694
-100.106
-131.229
-147.893
-153.264
-149.728
-138.684
-123.84
-109.994
-99.74
-94.164
-91.44
-88.103
-82.909
-76.179
-69.524
-65.356
-64.412
-66.132
-69.466
-73.022
-76.141
-78.565
-80.354
-82.103
-83.583
-84.264
-83.511
-79.607
-72.76
-65.289
-59.243
-57.916
-62.291
-69.199
-76.146
-80.139
-79.532
-76.861
-73.879
-71.774
-71.568
-71.797
-71.45
-70.415
-68.313
-65.564
-62.554
-59.181
-55.512
-51.588
-47.395
-43.027
-38.572
-34.078
-29.598
-25.178
-20.843
-16.597
-12.438
-8.36
-4.347
-0.386
3.531
7.414
11.27
15.103
18.921
22.735
26.554
30.388
34.246
38.132
42.053
46.011
50.006
54.037
58.1
62.19
66.302
70.433
74.578
78.733
82.892
87.048
91.193
95.318
99.413
103.465
107.462
111.389
115.23
118.97
122.594
126.083
129.422
132.592
135.577
138.36
140.924
143.252
145.328
147.137
148.665
149.898
150.823
151.43
151.708
151.65
151.247
150.496
149.391
147.931
146.116
143.947
141.426
138.559
135.353
131.814
127.955
123.786
119.322
114.577
109.57
104.317
98.839
93.156
87.291
81.265
75.102
68.825
62.46
56.029
49.558
43.071
36.594
30.148
23.759
17.45
11.241
5.154
-0.789
-6.572
-12.174
-17.58
-22.774
-27.741
-32.47
-36.949
-41.169
-45.121
-48.799
-52.198
-55.315
-58.148
-60.697
-62.963
-64.95
-66.662
-68.104
-69.284
-70.21
-70.89
-71.336
-71.56
-71.572
-71.387
-71.019
-70.481
-69.788
-68.956
-68.001
-66.936
-65.779
-64.544
-63.248
-61.905
-60.529
-59.136
-57.74
-56.353
-54.988
-53.657
-52.372
-51.141
-49.976
-48.885
-47.874
-46.951
-46.123
-45.392
-44.764
-44.241
-43.824
-43.515
-43.314
-43.219
-43.228
-43.339
-43.548
-43.85
-44.239
-44.71
-45.256
-45.869
-46.541
-47.264
-48.028
-48.823
-49.641
-50.472
-51.305
-52.132
-52.941
-53.724
-54.471
-55.172
-55.818
-56.401
-56.912
-57.342
-57.683
-57.929
-58.072
-58.107
-58.028
-57.83
-57.509
-57.061
-56.485
-55.777
-54.938
-53.966
-52.863
-51.63
-50.269
-48.786
-47.183
-45.468
-43.646
-41.724
-39.712
-37.617
-35.449
-33.217
-30.932
-28.605
-26.248
-23.874
-21.498
-19.136
-16.806
-14.526
-12.316
-10.195
-8.183
-6.3
-4.563
-2.988
-1.592
-0.388
0.607
1.38
1.919
2.215
2.26
2.05
1.584
0.862
-0.11
-1.322
-2.763
-4.424
-6.3
-8.395
-10.711
-13.244
-15.991
-18.946
-22.104
-25.462
-29.011
-32.726
-36.577
-40.53
-44.554
-48.62
-52.701
-56.75
-60.691
-64.452
-67.978
-71.248
-74.287
-77.122
-79.759
-82.228
-84.602
-86.954
-89.323
-91.671
-93.819
-95.549
-96.692
-97.084
-96.567
-95.055
-92.489
-88.904
-84.567
-79.876
-75.222
-70.983
-67.516
-65.151
-64.51
-66.442
-71.466
-79.578
-89.683
-100.139
-109.636
-117.452
-124.549
-132.109
-140.683
-150.373
-158.605
-161.346
-153.723
-129.615
-84.688
-17.29
71.165
175.713
289.127
403.736
512.337
608.609
688.851
751.689
798.072
830.86
851.749
860.059
851.49
819.348
758.096
665.705
546.956
412.626
276.431
152.511
50.722
-24.196
-71.48
-94.135
-96.15
-82.475
-59.76
-34.503
-13.494
-1.718
-0.253
-8.092
-20.961
-33.679
-42.787
-44.993
-40.669
-32.386
-22.662
-15.992
-14.131
-16.693
-23.116
-30.105
-35.649
-39.233
-40.145
-39.656
-38.847
-37.911
-37.354
-37.05
-36.815
-36.912
-37.498
-38.615
-40.217
-42.105
-44.028
-45.778
-47.206
-48.168
-48.525
-48.233
-47.294
-45.739
-43.651
-41.101
-38.14
-34.836
-31.251
-27.434
-23.444
-19.339
-15.17
-10.997
-6.867
-2.808
1.154
5.009
8.753
12.386
15.916
19.36
22.729
26.028
29.266
32.446
35.575
38.665
41.724
44.764
47.794
50.819
53.847
56.882
59.926
62.98
66.043
69.112
72.183
75.257
78.331
81.405
84.475
87.539
90.59
93.625
96.637
99.617
102.555
105.442
108.264
111.011
113.67
116.228
118.671
120.985
123.158
125.175
127.023
128.689
130.158
131.419
132.459
133.268
133.833
134.147
134.2
133.985
133.496
132.729
131.679
130.345
128.725
126.821
124.634
122.168
119.427
116.418
113.147
109.626
105.864
101.873
97.668
93.261
88.669
83.909
78.996
73.95
68.787
63.528
58.19
52.793
47.357
41.9
36.442
31.002
25.598
20.248
14.97
9.779
4.692
-0.276
-5.111
-9.801
-14.332
-18.694
-22.876
-26.87
-30.668
-34.264
-37.651
-40.825
-43.785
-46.527
-49.052
-51.36
-53.452
-55.33
-57
-58.464
-59.728
-60.799
-61.683
-62.389
-62.924
-63.298
-63.52
-63.599
-63.547
-63.373
-63.088
-62.702
-62.228
-61.675
-61.056
-60.379
-59.657
-58.9
-58.118
-57.321
-56.519
-55.721
-54.936
-54.173
-53.439
-52.741
-52.088
-51.484
-50.937
-50.451
-50.031
-49.682
-49.407
-49.21
-49.092
-49.056
-49.102
-49.232
-49.446
-49.742
-50.121
-50.58
-51.118
-51.732
-52.418
-53.173
-53.992
-54.87
-55.803
-56.783
-57.806
-58.864
-59.95
-61.059
-62.182
-63.312
-64.443
-65.565
-66.671
-67.754
-68.805
-69.816
-70.778
-71.684
-72.526
-73.296
-73.985
-74.588
-75.096
-75.504
-75.804
-75.991
-76.06
-76.005
-75.822
-75.508
-75.06
-74.476
-73.754
-72.896
-71.9
-70.77
-69.507
-68.115
-66.598
-64.961
-63.21
-61.35
-59.39
-57.338
-55.202
-52.994
-50.727
-48.416
-46.076
-43.725
-41.381
-39.064
-36.795
-34.592
-32.474
-30.46
-28.566
-26.812
-25.216
-23.795
-22.567
-21.543
-20.737
-20.157
-19.813
-19.709
-19.846
-20.221
-20.831
-21.674
-22.752
-24.073
-25.642
-27.462
-29.531
-31.846
-34.405
-37.206
-40.244
-43.497
-46.935
-50.525
-54.233
-58.027
-61.879
-65.74
-69.533
-73.194
-76.675
-79.96
-83.084
-86.064
-88.883
-91.557
-94.131
-96.624
-99.044
-101.32
-103.242
-104.648
-105.457
-105.573
-104.971
-103.699
-101.804
-99.457
-97.006
-94.77
-92.965
-91.788
-91.344
-91.672
-93.109
-96.169
-100.772
-106.646
-113.207
-119.129
-124.584
-130.42
-136.652
-143.989
-151.211
-155.838
-157.366
-154.317
-144.817
-126.803
-95.151
-45.68
22.327
106.835
201.724
300.017
397.076
489.453
575.11
652.302
718.52
772.544
814.466
844.86
863.202
865.087
843.028
789.263
699.77
578.568
437.118
291.316
157.236
45.832
-37.554
-92.107
-120.753
-126.932
-115.34
-92.971
-66.671
-44.104
-31.208
-29.136
-36.975
-50.394
-63.548
-72.91
-75.592
-71.895
-64.914
-57.529
-53.155
-53.052
-56.182
-61.1
-65.598
-68.509
-69.862
-69.852
-69.147
-68.209
-67.093
-65.901
-64.723
-63.651
-62.889
-62.638
-62.919
-63.644
-64.677
-65.816
-66.867
-67.666
-68.048
-67.862
-67.043
-65.586
-63.518
-60.905
-57.812
-54.299
-50.439
-46.302
-41.946
-37.423
-32.787
-28.087
-23.378
-18.718
-14.147
-9.693
-5.373
-1.192
2.85
6.758
10.544
14.227
17.821
21.337
24.786
28.176
31.519
34.828
38.116
41.397
44.681
47.978
51.294
54.635
58.003
61.401
64.827
68.279
71.755
75.253
78.769
82.302
85.847
89.396
92.943
96.48
99.996
103.479
106.914
110.288
113.584
116.786
119.877
122.84
125.656
128.307
130.776
133.044
135.095
136.911
138.477
139.776
140.796
141.522
141.944
142.051
141.835
141.289
140.409
139.19
137.631
135.733
133.497
130.928
128.032
124.816
121.291
117.466
113.357
108.977
104.344
99.476
94.393
89.116
83.666
78.067
72.342
66.516
60.612
54.656
48.671
42.683
36.715
30.792
24.936
19.169
13.513
7.988
2.612
-2.595
-7.619
-12.444
-17.056
-21.443
-25.593
-29.499
-33.152
-36.547
-39.679
-42.544
-45.143
-47.475
-49.543
-51.35
-52.9
-54.201
-55.259
-56.082
-56.681
-57.067
-57.25
-57.242
-57.057
-56.708
-56.208
-55.571
-54.811
-53.943
-52.979
-51.935
-50.822
-49.656
-48.448
-47.211
-45.957
-44.698
-43.444
-42.207
-40.994
-39.816
-38.681
-37.595
-36.565
-35.597
-34.695
-33.865
-33.108
-32.428
-31.826
-31.304
-30.861
-30.497
-30.212
-30.004
-29.87
-29.809
-29.818
-29.894
-30.033
-30.232
-30.488
-30.796
-31.153
-31.556
-32
-32.481
-32.996
-33.541
-34.113
-34.707
-35.32
-35.95
-36.592
-37.244
-37.904
-38.57
-39.238
-39.907
-40.575
-41.241
-41.904
-42.563
-43.216
-43.862
-44.503
-45.136
-45.761
-46.378
-46.987
-47.588
-48.178
-48.759
-49.328
-49.886
-50.429
-50.958
-51.469
-51.962
-52.434
-52.884
-53.308
-53.704
-54.071
-54.404
-54.702
-54.961
-55.178
-55.35
-55.473
-55.542
-55.556
-55.509
-55.397
-55.218
-54.967
-54.641
-54.236
-53.748
-53.175
-52.514
-51.762
-50.917
-49.977
-48.942
-47.811
-46.584
-45.263
-43.849
-42.345
-40.754
-39.079
-37.326
-35.498
-33.603
-31.645
-29.634
-27.577
-25.483
-23.362
-21.226
-19.088
-16.964
-14.869
-12.821
-10.837
-8.936
-7.138
-5.461
-3.924
-2.542
-1.334
-0.314
0.499
1.09
1.443
1.547
1.391
0.967
0.267
-0.712
-1.968
-3.498
-5.297
-7.364
-9.702
-12.317
-15.209
-18.378
-21.822
-25.529
-29.492
-33.692
-38.1
-42.69
-47.426
-52.272
-57.198
-62.165
-67.134
-72.061
-76.882
-81.511
-85.89
-89.975
-93.748
-97.25
-100.523
-103.598
-106.572
-109.577
-112.701
-116.012
-119.492
-122.968
-126.269
-129.289
-131.86
-133.798
-134.987
-135.299
-134.702
-133.448
-131.879
-130.214
-128.814
-128.143
-128.489
-130.519
-134.929
-141.61
-150.475
-160.957
-171.651
-181.773
-190.404
-196.689
-200.872
-202.987
-202.435
-197.174
-182.853
-153.816
-105.413
-36.626
49.516
146.437
246.697
345.153
438.392
524.449
601.789
668.048
722.021
764.073
794.964
814.33
817.973
798.08
746.507
659.089
539.532
399.295
254.427
120.941
10.061
-72.541
-125.867
-152.717
-157.023
-144.128
-121.614
-96.671
-76.059
-64.729
-62.827
-68.616
-78.984
-89.501
-98.111
-103.391
-104.691
-103.658
-101.704
-100.575
-101.688
-104.654
-108.399
-111.347
-112.273
-110.972
-107.886
-103.867
-99.559
-95.254
-91.142
-87.33
-83.978
-81.309
-79.362
-78.024
-77.177
-76.655
-76.332
-76.132
-75.923
-75.558
-74.969
-74.13
-73.034
-71.702
-70.112
-68.21
-65.989
-63.457
-60.634
-57.557
-54.235
-50.665
-46.849
-42.778
-38.462
-33.92
-29.156
-24.172
-18.983
-13.611
-8.102
-2.527
3.067
8.654
14.212
19.735
25.211
30.618
35.943
41.175
46.304
51.326
56.233
61.011
65.66
70.185
74.604
78.949
83.238
87.48
91.683
95.844
99.963
104.04
108.067
112.031
115.921
119.726
123.438
127.048
130.546
133.915
137.138
140.195
143.067
145.736
148.187
150.403
152.371
154.076
155.507
156.656
157.515
158.073
158.321
158.251
157.855
157.126
156.059
154.65
152.896
150.796
148.353
145.568
142.447
138.996
135.223
131.137
126.75
122.073
117.12
111.909
106.454
100.775
94.89
88.821
82.587
76.212
69.717
63.126
56.461
49.746
43.003
36.256
29.526
22.838
16.212
9.669
3.231
-3.082
-9.252
-15.26
-21.09
-26.726
-32.154
-37.361
-42.337
-47.07
-51.553
-55.779
-59.742
-63.44
-66.869
-70.029
-72.919
-75.543
-77.903
-80.004
-81.852
-83.453
-84.816
-85.95
-86.865
-87.571
-88.08
-88.404
-88.555
-88.547
-88.391
-88.104
-87.696
-87.184
-86.579
-85.896
-85.148
-84.347
-83.507
-82.639
-81.755
-80.865
-79.98
-79.11
-78.263
-77.447
-76.67
-75.939
-75.26
-74.637
-74.076
-73.58
-73.153
-72.796
-72.512
-72.301
-72.164
-72.1
-72.11
-72.193
-72.345
-72.566
-72.853
-73.203
-73.614
-74.081
-74.602
-75.172
-75.788
-76.445
-77.141
-77.87
-78.629
-79.414
-80.221
-81.047
-81.888
-82.741
-83.602
-84.468
-85.336
-86.203
-87.065
-87.922
-88.769
-89.604
-90.425
-91.231
-92.018
-92.784
-93.529
-94.249
-94.944
-95.611
-96.25
-96.858
-97.435
-97.979
-98.489
-98.964
-99.404
-99.808
-100.175
-100.505
-100.797
-101.051
-101.267
-101.445
-101.585
-101.687
-101.751
-101.78
-101.772
-101.73
-101.654
-101.545
-101.407
-101.238
-101.043
-100.822
-100.578
-100.313
-100.03
-99.731
-99.418
-99.096
-98.767
-98.433
-98.098
-97.765
-97.436
-97.115
-96.804
-96.506
-96.223
-95.957
-95.712
-95.487
-95.286
-95.109
-94.957
-94.829
-94.727
-94.648
-94.593
-94.559
-94.544
-94.546
-94.563
-94.592
-94.629
-94.67
-94.712
-94.75
-94.778
-94.792
-94.787
-94.755
-94.691
-94.589
-94.442
-94.244
-93.988
-93.667
-93.276
-92.808
-92.257
-91.617
-90.883
-90.049
-89.111
-88.066
-86.91
-85.641
-84.258
-82.76
-81.148
-79.422
-77.586
-75.642
-73.593
-71.445
-69.204
-66.875
-64.466
-61.985
-59.442
-56.849
-54.222
-51.574
-48.923
-46.288
-43.688
-41.143
-38.675
-36.303
-34.047
-31.923
-29.951
-28.15
-26.54
-25.138
-23.958
-23.015
-22.32
-21.88
-21.704
-21.791
-22.14
-22.745
-23.602
-24.711
-26.08
-27.714
-29.617
-31.788
-34.223
-36.919
-39.869
-43.064
-46.485
-50.109
-53.903
-57.838
-61.887
-66.016
-70.193
-74.36
-78.428
-82.33
-86.024
-89.498
-92.793
-95.947
-98.97
-101.915
-104.884
-107.932
-111.077
-114.239
-117.188
-119.705
-121.63
-122.819
-123.138
-122.516
-120.952
-118.529
-115.553
-112.433
-109.535
-107.143
-105.574
-105.089
-106.129
-109.514
-115.684
-124.486
-134.898
-145.076
-153.463
-159.548
-164.285
-169.351
-175.921
-183.747
-190.076
-189.66
-176.239
-143.692
-87.914
-9.715
86.421
193.478
302.748
408.272
505.735
591.876
666.009
727.182
775.918
813.566
839.007
849.358
837.844
796.381
720.974
612.946
481.595
341.895
208.326
92.682
1.676
-63.308
-102.861
-118.879
-114.971
-96.2
-69.662
-43.521
-24.603
-16.447
-18.927
-29.293
-42.804
-55.2
-63.668
-65.966
-62.677
-56.003
-48.319
-42.913
-40.994
-41.792
-44.145
-46.189
-47.091
-47.197
-47.025
-47.245
-48.162
-49.657
-51.538
-53.584
-55.646
-57.645
-59.435
-60.787
-61.516
-61.512
-60.779
-59.444
-57.61
-55.325
-52.689
-49.868
-46.976
-44.072
-41.123
-37.967
-34.507
-30.732
-26.614
-22.134
-17.303
-12.144
-6.745
-1.265
4.193
9.58
14.862
20.037
25.105
30.051
34.891
39.657
44.365
49.027
53.644
58.206
62.709
67.164
71.578
75.962
80.324
84.668
88.998
93.318
97.628
101.931
106.223
110.5
114.762
119.005
123.23
127.433
131.613
135.764
139.879
143.949
147.964
151.914
155.786
159.567
163.242
166.796
170.214
173.479
176.575
179.485
182.192
184.679
186.93
188.927
190.655
192.1
193.246
194.08
194.59
194.765
194.595
194.072
193.188
191.94
190.323
188.336
185.979
183.253
180.164
176.716
172.917
168.777
164.307
159.52
154.431
149.058
143.419
137.533
131.422
125.108
118.614
111.964
105.183
98.296
91.329
84.307
77.256
70.203
63.171
56.186
49.273
42.454
35.753
29.191
22.787
16.562
10.534
4.717
-0.871
-6.219
-11.314
-16.146
-20.706
-24.988
-28.988
-32.7
-36.125
-39.261
-42.111
-44.677
-46.965
-48.98
-50.73
-52.223
-53.47
-54.48
-55.266
-55.841
-56.217
-56.408
-56.43
-56.295
-56.021
-55.62
-55.109
-54.503
-53.817
-53.065
-52.261
-51.42
-50.554
-49.677
-48.8
-47.935
-47.094
-46.284
-45.517
-44.799
-44.14
-43.544
-43.017
-42.565
-42.192
-41.9
-41.692
-41.57
-41.534
-41.584
-41.72
-41.94
-42.243
-42.625
-43.085
-43.619
-44.222
-44.892
-45.622
-46.409
-47.247
-48.131
-49.055
-50.015
-51.003
-52.016
-53.047
-54.091
-55.141
-56.194
-57.242
-58.282
-59.309
-60.317
-61.301
-62.259
-63.184
-64.074
-64.925
-65.733
-66.495
-67.207
-67.868
-68.475
-69.025
-69.516
-69.948
-70.317
-70.624
-70.867
-71.045
-71.159
-71.208
-71.193
-71.114
-70.971
-70.767
-70.501
-70.177
-69.795
-69.358
-68.869
-68.33
-67.744
-67.114
-66.444
-65.737
-64.998
-64.23
-63.437
-62.624
-61.796
-60.956
-60.111
-59.263
-58.419
-57.583
-56.759
-55.952
-55.166
-54.407
-53.678
-52.982
-52.325
-51.71
-51.14
-50.617
-50.145
-49.726
-49.362
-49.054
-48.802
-48.609
-48.472
-48.393
-48.371
-48.402
-48.487
-48.621
-48.801
-49.025
-49.287
-49.582
-49.907
-50.254
-50.618
-50.992
-51.371
-51.748
-52.116
-52.468
-52.796
-53.094
-53.354
-53.57
-53.732
-53.835
-53.871
-53.833
-53.714
-53.51
-53.213
-52.819
-52.323
-51.72
-51.006
-50.179
-49.235
-48.173
-46.992
-45.693
-44.276
-42.744
-41.099
-39.345
-37.486
-35.53
-33.481
-31.346
-29.134
-26.852
-24.51
-22.119
-19.689
-17.231
-14.76
-12.291
-9.842
-7.428
-5.07
-2.786
-0.597
1.476
3.415
5.2
6.815
8.244
9.47
10.477
11.25
11.777
12.046
12.05
11.784
11.244
10.432
9.352
8.014
6.428
4.6
2.527
0.207
-2.358
-5.167
-8.217
-11.497
-14.999
-18.705
-22.586
-26.618
-30.768
-35.006
-39.307
-43.639
-47.967
-52.25
-56.424
-60.404
-64.125
-67.545
-70.654
-73.503
-76.152
-78.659
-81.136
-83.732
-86.56
-89.682
-93.039
-96.405
-99.512
-102.159
-104.111
-105.1
-104.922
-103.405
-100.561
-96.729
-92.338
-87.764
-83.497
-80.314
-79.129
-80.842
-85.972
-93.806
-103.099
-113.001
-122.931
-133.489
-145.345
-158.019
-170.504
-180.355
-184.763
-180.505
-163.018
-128.296
-72.415
6.299
105.052
218.756
339.228
457.335
566.117
659.62
734.93
791.839
830.455
851.247
852.423
829.87
779.566
699.312
592.565
468.676
340.216
220.259
117.646
35.938
-24.716
-66.162
-89.737
-96.342
-88.523
-71.228
-51.331
-35.65
-28.151
-28.371
-32.777
-36.984
-37.829
-35.125
-30.597
-26.376
-24.144
-24.016
-25.054
-26.245
-26.83
-26.575
-25.896
-25.234
-24.374
-23.177
-21.17
-17.609
-13.221
-8.953
-5.756
-5.284
-7.345
-10.496
-13.672
-15.085
-14.17
-12.293
-10.194
-8.692
-8.334
-8.069
-7.264
-5.736
-3.136
0.176
3.875
7.997
12.432
17.133
22.113
27.268
32.507
37.785
43.042
48.223
53.306
58.273
63.115
67.835
72.443
76.946
81.36
85.698
89.97
94.185
98.347
102.467
106.555
110.622
114.681
118.738
122.802
126.877
130.967
135.075
139.199
143.336
147.483
151.635
155.79
159.944
164.092
168.23
172.349
176.444
180.503
184.518
188.475
192.361
196.16
199.856
203.434
206.875
210.163
213.278
216.204
218.921
221.413
223.66
225.646
227.354
228.768
229.873
230.655
231.102
231.201
230.944
230.321
229.327
227.956
226.205
224.074
221.563
218.674
215.412
211.783
207.796
203.461
198.79
193.798
188.501
182.917
177.065
170.966
164.642
158.117
151.416
144.562
137.583
130.503
123.35
116.15
108.929
101.715
94.531
87.405
80.36
73.421
66.609
59.947
53.455
47.152
41.055
35.181
29.545
24.159
19.036
14.185
9.614
5.33
1.336
-2.363
-5.766
-8.875
-11.691
-14.219
-16.462
-18.428
-20.125
-21.561
-22.748
-23.696
-24.417
-24.924
-25.23
-25.351
-25.3
-25.091
-24.741
-24.263
-23.673
-22.985
-22.215
-21.377
-20.484
-19.55
-18.589
-17.613
-16.633
-15.662
-14.709
-13.784
-12.898
-12.057
-11.269
-10.542
-9.88
-9.289
-8.772
-8.334
-7.976
-7.701
-7.509
-7.401
-7.376
-7.435
-7.574
-7.794
-8.09
-8.461
-8.904
-9.415
-9.991
-10.627
-11.321
-12.067
-12.861
-13.699
-14.576
-15.487
-16.429
-17.396
-18.384
-19.388
-20.403
-21.425
-22.45
-23.473
-24.49
-25.498
-26.492
-27.468
-28.425
-29.357
-30.262
-31.138
-31.981
-32.789
-33.56
-34.292
-34.982
-35.629
-36.232
-36.788
-37.298
-37.759
-38.171
-38.534
-38.847
-39.109
-39.321
-39.484
-39.597
-39.662
-39.681
-39.653
-39.582
-39.468
-39.315
-39.124
-38.899
-38.643
-38.357
-38.047
-37.715
-37.365
-37.001
-36.627
-36.248
-35.867
-35.488
-35.117
-34.756
-34.412
-34.087
-33.787
-33.514
-33.274
-33.071
-32.907
-32.787
-32.713
-32.69
-32.719
-32.803
-32.944
-33.143
-33.402
-33.721
-34.1
-34.54
-35.039
-35.596
-36.209
-36.876
-37.594
-38.359
-39.167
-40.014
-40.893
-41.8
-42.728
-43.672
-44.623
-45.576
-46.523
-47.456
-48.368
-49.251
-50.097
-50.898
-51.645
-52.33
-52.945
-53.482
-53.933
-54.29
-54.546
-54.696
-54.73
-54.645
-54.435
-54.094
-53.619
-53.005
-52.251
-51.355
-50.315
-49.133
-47.81
-46.348
-44.75
-43.022
-41.167
-39.194
-37.108
-34.917
-32.631
-30.26
-27.815
-25.306
-22.748
-20.156
-17.547
-14.94
-12.354
-9.809
-7.328
-4.932
-2.645
-0.488
1.52
3.359
5.011
6.457
7.677
8.656
9.378
9.832
10.01
9.903
9.507
8.822
7.854
6.607
5.089
3.302
1.241
-1.097
-3.713
-6.606
-9.77
-13.196
-16.877
-20.8
-24.94
-29.27
-33.754
-38.358
-43.051
-47.799
-52.568
-57.302
-61.911
-66.324
-70.491
-74.392
-78.062
-81.532
-84.807
-87.947
-91.067
-94.252
-97.571
-100.984
-104.274
-107.249
-109.763
-111.633
-112.69
-112.772
-111.712
-109.549
-106.608
-103.195
-99.597
-96.239
-93.523
-92.178
-93.277
-97.225
-103.932
-112.826
-122.586
-132.792
-143.412
-154.273
-165.753
-177.121
-187.226
-194.651
-196.013
-187.089
-162.56
-117.563
-51.13
34.055
131.546
233.436
334.169
429.942
518.67
598.972
668.398
725.497
770.321
803.284
823.972
828.36
808.937
758.034
671.994
554.884
417.993
276.506
145.205
34.168
-51.066
-108.349
-138.838
-144.942
-131.698
-107.84
-82.074
-62.402
-53.864
-55.466
-64.095
-75.676
-85.633
-92.401
-95.297
-94.123
-90.709
-86.723
-84.011
-84.165
-86.966
-91.341
-95.702
-98.766
-100.191
-100.164
-99.29
-98.059
-96.666
-95.245
-93.877
-92.671
-91.817
-91.489
-91.717
-92.43
-93.497
-94.742
-95.996
-97.131
-98.057
-98.662
-98.883
-98.677
-97.987
-96.817
-95.197
-93.157
-90.746
-88.01
-84.972
-81.666
-78.146
-74.446
-70.603
-66.633
-62.507
-58.22
-53.785
-49.23
-44.613
-39.969
-35.308
-30.641
-25.981
-21.341
-16.736
-12.168
-7.619
-3.08
1.447
5.948
10.395
14.77
19.073
23.309
27.494
31.636
35.735
39.792
43.814
47.802
51.755
55.662
59.501
63.257
66.917
70.473
73.916
77.236
80.417
83.44
86.288
88.944
91.389
93.603
95.565
97.257
98.661
99.764
100.554
101.019
101.148
100.93
100.355
99.415
98.103
96.412
94.336
91.872
89.019
85.777
82.15
78.142
73.758
69.008
63.901
58.449
52.665
46.564
40.162
33.477
26.53
19.341
11.931
4.325
-3.453
-11.38
-19.428
-27.573
-35.788
-44.048
-52.326
-60.598
-68.838
-77.02
-85.123
-93.122
-100.994
-108.72
-116.277
-123.648
-130.815
-137.761
-144.471
-150.934
-157.136
-163.068
-168.722
-174.092
-179.171
-183.957
-188.447
-192.642
-196.541
-200.148
-203.467
-206.504
-209.264
-211.756
-213.988
-215.971
-217.716
-219.233
-220.535
-221.636
-222.547
-223.283
-223.857
-224.283
-224.576
-224.748
-224.815
-224.79
-224.685
-224.513
-224.287
-224.018
-223.717
-223.395
-223.062
-222.726
-222.395
-222.078
-221.781
-221.51
-221.269
-221.064
-220.897
-220.771
-220.688
-220.649
-220.655
-220.705
-220.799
-220.935
-221.111
-221.325
-221.573
-221.853
-222.161
-222.493
-222.845
-223.212
-223.59
-223.974
-224.361
-224.746
-225.125
-225.493
-225.846
-226.181
-226.495
-226.784
-227.044
-227.275
-227.473
-227.637
-227.765
-227.857
-227.911
-227.928
-227.908
-227.852
-227.76
-227.634
-227.475
-227.286
-227.07
-226.829
-226.565
-226.283
-225.986
-225.677
-225.36
-225.038
-224.716
-224.397
-224.084
-223.782
-223.494
-223.224
-222.974
-222.747
-222.547
-222.375
-222.233
-222.124
-222.047
-222.004
-221.996
-222.021
-222.079
-222.17
-222.29
-222.439
-222.613
-222.808
-223.02
-223.245
-223.477
-223.711
-223.941
-224.159
-224.359
-224.534
-224.677
-224.78
-224.836
-224.835
-224.771
-224.636
-224.42
-224.117
-223.717
-223.213
-222.597
-221.862
-221.001
-220.009
-218.878
-217.604
-216.182
-214.609
-212.88
-210.993
-208.946
-206.739
-204.372
-201.847
-199.165
-196.332
-193.351
-190.229
-186.973
-183.591
-180.092
-176.484
-172.78
-168.989
-165.124
-161.199
-157.227
-153.226
-149.211
-145.204
-141.225
-137.295
-133.437
-129.672
-126.025
-122.517
-119.168
-115.998
-113.025
-110.266
-107.74
-105.462
-103.448
-101.709
-100.252
-99.083
-98.206
-97.623
-97.329
-97.314
-97.569
-98.086
-98.86
-99.897
-101.199
-102.761
-104.574
-106.633
-108.929
-111.451
-114.185
-117.095
-120.139
-123.278
-126.471
-129.687
-132.898
-136.053
-139.075
-141.894
-144.453
-146.732
-148.755
-150.525
-152.035
-153.315
-154.438
-155.491
-156.545
-157.584
-158.483
-159.126
-159.395
-159.171
-158.325
-156.719
-154.256
-150.94
-146.914
-142.347
-137.455
-132.479
-127.663
-123.616
-121.198
-121.032
-123.624
-128.398
-133.664
-138.49
-142.264
-145.829
-151.583
-160.282
-171.575
-183.037
-190.182
-188.996
-174.954
-144.333
-94.173
-22.223
70.228
179.436
298.294
417.179
528.043
624.213
702.449
763.174
807.053
834.4
843.044
827.968
784.208
709.018
605.14
481.452
350.814
227.651
122.744
41.119
-16.757
-55.081
-78.117
-87.759
-86.211
-74.82
-56.34
-36.803
-20.772
-10.664
-6.469
-4.438
-1.122
4.379
11.444
17.766
21.073
21.189
19.039
15.81
12.72
10.366
8.589
7.361
7.175
8.084
10.532
14.984
20.319
25.736
30.227
32.446
33.1
32.931
32.568
33.088
34.073
35.084
36.17
37.122
38.343
40.223
42.719
45.846
49.528
53.644
58.18
63.11
68.361
73.88
79.629
85.562
91.633
97.79
103.971
110.13
116.243
122.297
128.282
134.199
140.049
145.84
151.589
157.306
162.998
168.673
174.334
179.988
185.646
191.316
197.006
202.723
208.471
214.252
220.064
225.907
231.774
237.66
243.556
249.453
255.343
261.219
267.07
272.886
278.653
284.36
289.992
295.533
300.966
306.272
311.431
316.423
321.229
325.826
330.195
334.312
338.158
341.711
344.951
347.859
350.414
352.6
354.398
355.794
356.773
357.323
357.433
357.093
356.297
355.04
353.318
351.131
348.48
345.368
341.802
337.787
333.335
328.458
323.168
317.482
311.419
304.998
298.24
291.169
283.81
276.189
268.332
260.268
252.026
243.634
235.123
226.523
217.863
209.173
200.483
191.821
183.216
174.695
166.285
158.011
149.897
141.966
134.24
126.737
119.476
112.475
105.746
99.305
93.162
87.326
81.806
76.607
71.734
67.188
62.971
59.082
55.517
52.272
49.342
46.72
44.397
42.363
40.609
39.121
37.889
36.898
36.134
35.584
35.232
35.063
35.062
35.214
35.504
35.916
36.434
37.046
37.736
38.49
39.295
40.138
41.007
41.891
42.777
43.658
44.521
45.361
46.167
46.933
47.653
48.321
48.932
49.482
49.968
50.386
50.736
51.014
51.22
51.354
51.415
51.405
51.323
51.171
50.951
50.664
50.312
49.897
49.422
48.889
48.301
47.661
46.971
46.234
45.453
44.631
43.771
42.876
41.948
40.991
40.006
38.997
37.967
36.918
35.853
34.774
33.684
32.587
31.484
30.379
29.275
28.175
27.081
25.999
24.93
23.879
22.85
21.847
20.874
19.936
19.037
18.181
17.372
16.616
15.916
15.277
14.704
14.2
13.771
13.42
13.153
12.974
12.887
12.896
13.004
13.215
13.533
13.96
14.498
15.151
15.918
16.803
17.804
18.922
20.157
21.506
22.967
24.537
26.212
27.986
29.856
31.813
33.852
35.964
38.141
40.375
42.655
44.972
47.315
49.671
52.026
54.366
56.673
58.929
61.118
63.217
65.209
67.072
68.787
70.339
71.708
72.879
73.835
74.56
75.038
75.258
75.208
74.881
74.271
73.374
72.192
70.729
68.993
66.991
64.726
62.195
59.396
56.329
52.995
49.401
45.556
41.467
37.147
32.618
27.906
23.044
18.064
12.994
7.867
2.715
-2.412
-7.43
-12.276
-16.908
-21.304
-25.498
-29.519
-33.376
-37.124
-40.864
-44.66
-48.552
-52.497
-56.319
-59.853
-62.955
-65.482
-67.308
-68.338
-68.539
-67.966
-66.822
-65.4
-64.01
-62.89
-62.286
-62.482
-63.933
-67.337
-73.197
-81.528
-91.364
-101.305
-110.214
-117.396
-123.738
-130.229
-137.167
-144.581
-150.309
-150.998
-142.402
-118.905
-75.916
-10.879
75.287
177.897
289.632
401.862
507.214
599.725
675.752
734.494
775.981
800.669
807.899
794.324
755.779
689.547
596.408
483.032
360.386
240.162
132.586
42.993
-27.429
-79.12
-113.928
-132.328
-135.033
-125.369
-107.54
-88.283
-74.032
-66.894
-66.657
-69.844
-71.705
-70.836
-67.6
-63.825
-62.33
-63.708
-67.13
-71.594
-75.749
-78.984
-81.377
-82.865
-83.369
-82.996
-81.897
-80.285
-78.459
-76.66
-75.046
-73.834
-73.255
-73.356
-74.058
-75.209
-76.574
-77.936
-79.112
-79.912
-80.162
-79.772
-78.721
-77.023
-74.738
-71.922
-68.627
-64.912
-60.844
-56.475
-51.852
-47.026
-42.045
-36.964
-31.846
-26.734
-21.659
-16.64
-11.686
-6.799
-1.977
2.789
7.517
12.218
16.901
21.573
26.24
30.91
35.594
40.302
45.046
49.832
54.666
59.552
64.492
69.484
74.525
79.609
84.729
89.878
95.048
100.231
105.42
110.605
115.773
120.912
126.009
131.048
136.011
140.88
145.634
150.254
154.716
159.001
163.085
166.945
170.56
173.907
176.965
179.712
182.128
184.193
185.888
187.198
188.106
188.598
188.662
188.289
187.469
186.198
184.47
182.286
179.646
176.552
173.009
169.027
164.613
159.781
154.544
148.919
142.925
136.582
129.913
122.942
115.694
108.198
100.481
92.571
84.5
76.298
67.995
59.622
51.21
42.789
34.39
26.043
17.775
9.616
1.59
-6.276
-13.959
-21.436
-28.687
-35.692
-42.435
-48.9
-55.074
-60.943
-66.5
-71.735
-76.642
-81.218
-85.461
-89.368
-92.943
-96.188
-99.107
-101.706
-103.993
-105.978
-107.669
-109.078
-110.217
-111.098
-111.737
-112.146
-112.341
-112.336
-112.148
-111.792
-111.282
-110.635
-109.865
-108.987
-108.016
-106.966
-105.851
-104.683
-103.476
-102.242
-100.991
-99.734
-98.482
-97.245
-96.03
-94.846
-93.7
-92.599
-91.55
-90.556
-89.625
-88.759
-87.962
-87.238
-86.589
-86.018
-85.525
-85.112
-84.779
-84.527
-84.356
-84.265
-84.255
-84.323
-84.469
-84.693
-84.991
-85.364
-85.808
-86.322
-86.903
-87.549
-88.258
-89.025
-89.848
-90.724
-91.648
-92.617
-93.627
-94.672
-95.748
-96.849
-97.969
-99.102
-100.242
-101.383
-102.518
-103.639
-104.742
-105.818
-106.86
-107.863
-108.818
-109.718
-110.557
-111.326
-112.019
-112.629
-113.148
-113.569
-113.887
-114.094
-114.186
-114.157
-114.002
-113.716
-113.295
-112.738
-112.039
-111.199
-110.217
-109.092
-107.826
-106.422
-104.883
-103.212
-101.417
-99.502
-97.475
-95.344
-93.117
-90.804
-88.415
-85.962
-83.455
-80.91
-78.342
-75.767
-73.204
-70.674
-68.195
-65.792
-63.484
-61.295
-59.245
-57.354
-55.639
-54.119
-52.812
-51.737
-50.909
-50.341
-50.045
-50.029
-50.298
-50.856
-51.701
-52.826
-54.225
-55.889
-57.814
-60.007
-62.468
-65.199
-68.196
-71.452
-74.957
-78.704
-82.678
-86.855
-91.207
-95.696
-100.288
-104.951
-109.648
-114.346
-118.986
-123.473
-127.736
-131.733
-135.446
-138.922
-142.199
-145.279
-148.217
-151.129
-154.084
-157.126
-160.194
-163.04
-165.462
-167.325
-168.469
-168.756
-168.085
-166.36
-163.676
-160.402
-156.89
-153.449
-150.413
-148.1
-147.134
-148.371
-152.358
-159.17
-167.946
-177.335
-186.369
-194.505
-202.422
-210.984
-220.333
-229.995
-237.437
-239.181
-230.917
-207.648
-166.064
-104.222
-23.11
73.26
179.771
289.849
397.183
495.832
580.623
648.609
699.108
734.65
758.063
770.052
768.302
746.024
696.519
617.064
510.278
385.66
255.977
132.956
25.588
-61.266
-125.851
-167.565
-186.883
-186.002
-169.545
-144.761
-119.943
-101.861
-93.884
-95.419
-103.027
-112.208
-119.046
-121.196
-118.179
-111.45
-103.629
-97.513
-94.881
-95.732
-98.797
-102.307
-105.06
-106.745
-107.551
-107.865
-107.862
-107.598
-107.121
-106.458
-105.736
-105.087
-104.628
-104.513
-104.776
-105.319
-106.006
-106.648
-107.055
-107.107
-106.686
-105.673
-104.027
-101.75
-98.875
-95.479
-91.635
-87.397
-82.83
-77.997
-72.948
-67.741
-62.425
-57.043
-51.642
-46.257
-40.91
-35.616
-30.38
-25.201
-20.074
-14.989
-9.93
-4.886
0.151
5.186
10.225
15.274
20.341
25.433
30.557
35.716
40.912
46.146
51.418
56.722
62.055
67.406
72.766
78.127
83.478
88.81
94.112
99.371
104.573
109.705
114.75
119.692
124.511
129.188
133.701
138.031
142.155
146.053
149.703
153.084
156.175
158.955
161.406
163.508
165.245
166.598
167.555
168.1
168.223
167.913
167.163
165.967
164.32
162.222
159.673
156.676
153.236
149.36
145.058
140.342
135.225
129.723
123.855
117.64
111.1
104.26
97.144
89.78
82.194
74.417
66.477
58.406
50.233
41.99
33.709
25.419
17.152
8.938
0.806
-7.215
-15.098
-22.817
-30.347
-37.664
-44.746
-51.573
-58.126
-64.389
-70.347
-75.986
-81.295
-86.265
-90.888
-95.16
-99.075
-102.634
-105.835
-108.681
-111.176
-113.324
-115.134
-116.612
-117.77
-118.617
-119.167
-119.432
-119.426
-119.165
-118.663
-117.938
-117.004
-115.88
-114.581
-113.124
-111.527
-109.806
-107.977
-106.056
-104.058
-101.999
-99.894
-97.755
-95.596
-93.429
-91.267
-89.119
-86.997
-84.908
-82.863
-80.867
-78.929
-77.053
-75.246
-73.511
-71.852
-70.272
-68.774
-67.358
-66.026
-64.779
-63.616
-62.537
-61.541
-60.626
-59.792
-59.037
-58.358
-57.754
-57.221
-56.759
-56.363
-56.032
-55.763
-55.554
-55.401
-55.301
-55.253
-55.254
-55.301
-55.391
-55.522
-55.692
-55.898
-56.136
-56.405
-56.702
-57.024
-57.369
-57.732
-58.112
-58.505
-58.909
-59.318
-59.73
-60.141
-60.545
-60.94
-61.32
-61.68
-62.016
-62.322
-62.593
-62.824
-63.009
-63.144
-63.221
-63.236
-63.183
-63.057
-62.85
-62.558
-62.175
-61.695
-61.113
-60.425
-59.625
-58.71
-57.676
-56.519
-55.236
-53.826
-52.285
-50.613
-48.81
-46.876
-44.812
-42.621
-40.306
-37.871
-35.32
-32.66
-29.897
-27.039
-24.091
-21.064
-17.968
-14.812
-11.608
-8.368
-5.106
-1.837
1.423
4.656
7.843
10.964
13.999
16.926
19.724
22.372
24.851
27.141
29.226
31.086
32.706
34.068
35.158
35.962
36.471
36.676
36.571
36.156
35.434
34.41
33.092
31.483
29.582
27.387
24.899
22.122
19.061
15.727
12.137
8.317
4.305
0.136
-4.156
-8.539
-12.983
-17.451
-21.901
-26.282
-30.54
-34.603
-38.389
-41.837
-44.914
-47.63
-50.07
-52.329
-54.505
-56.729
-59.156
-61.873
-64.906
-68.148
-71.305
-74.123
-76.384
-77.826
-78.22
-77.377
-75.182
-71.795
-67.689
-63.318
-59.201
-55.918
-53.946
-53.91
-56.428
-61.73
-69.775
-80.067
-91.274
-101.931
-110.614
-116.31
-119.361
-119.937
-116.867
-107.168
-85.359
-46.34
11.724
87.002
173.848
265.583
357.876
448.207
535.093
617.083
690.984
753.86
805.223
846.011
877.717
899.488
904.824
884.317
829.533
736.852
612.306
469.472
324.844
194.368
88.154
10.423
-38.345
-61.065
-61.76
-45.875
-21.033
5.111
25.4
35.057
33.595
23.173
8.528
-4.494
-11.942
-11.964
-5.81
2.463
8.786
10.672
7.916
2.48
-2.952
-6.753
-8.429
-8.209
-6.911
-5.015
-2.654
-0.01
2.79
5.549
7.97
9.81
11.004
11.604
11.718
11.532
11.209
10.884
10.706
10.793
11.185
11.88
12.863
14.107
15.615
17.413
19.495
21.838
24.423
27.223
30.218
33.389
36.71
40.155
43.717
47.416
51.28
55.331
59.577
64.007
68.591
73.289
78.07
82.906
87.776
92.67
97.578
102.5
107.439
112.402
117.383
122.364
127.327
132.254
137.136
141.973
146.772
151.549
156.313
161.075
165.84
170.607
175.369
180.113
184.823
189.477
194.055
198.54
202.915
207.163
211.265
215.198
218.938
222.461
225.738
228.745
231.456
233.848
235.898
237.588
238.901
239.824
240.343
240.448
240.127
239.37
238.17
236.521
234.419
231.862
228.849
225.385
221.474
217.126
212.349
207.159
201.568
195.595
189.258
182.578
175.579
168.284
160.721
152.916
144.897
136.696
128.34
119.863
111.293
102.663
94.002
85.342
76.711
68.138
59.652
51.279
43.044
34.972
27.086
19.406
11.953
4.744
-2.204
-8.878
-15.265
-21.355
-27.141
-32.615
-37.774
-42.615
-47.138
-51.345
-55.238
-58.823
-62.105
-65.093
-67.795
-70.223
-72.386
-74.299
-75.974
-77.424
-78.665
-79.711
-80.577
-81.279
-81.831
-82.248
-82.547
-82.74
-82.842
-82.868
-82.83
-82.74
-82.612
-82.455
-82.28
-82.098
-81.916
-81.743
-81.587
-81.453
-81.347
-81.275
-81.239
-81.245
-81.293
-81.387
-81.527
-81.715
-81.95
-82.234
-82.565
-82.943
-83.367
-83.835
-84.346
-84.898
-85.49
-86.121
-86.787
-87.489
-88.225
-88.992
-89.79
-90.618
-91.475
-92.359
-93.271
-94.209
-95.172
-96.162
-97.177
-98.217
-99.282
-100.372
-101.489
-102.63
-103.798
-104.991
-106.21
-107.456
-108.727
-110.024
-111.347
-112.695
-114.068
-115.464
-116.883
-118.325
-119.786
-121.266
-122.764
-124.276
-125.801
-127.336
-128.879
-130.426
-131.976
-133.523
-135.066
-136.602
-138.126
-139.635
-141.127
-142.597
-144.043
-145.461
-146.848
-148.201
-149.516
-150.792
-152.026
-153.215
-154.357
-155.451
-156.494
-157.485
-158.423
-159.308
-160.138
-160.913
-161.634
-162.3
-162.914
-163.475
-163.985
-164.447
-164.861
-165.231
-165.559
-165.848
-166.1
-166.32
-166.511
-166.676
-166.819
-166.943
-167.054
-167.154
-167.247
-167.337
-167.429
-167.525
-167.629
-167.744
-167.874
-168.022
-168.191
-168.383
-168.601
-168.849
-169.126
-169.436
-169.78
-170.159
-170.573
-171.023
-171.508
-172.029
-172.584
-173.171
-173.791
-174.439
-175.113
-175.811
-176.529
-177.263
-178.008
-178.76
-179.514
-180.266
-181.009
-181.739
-182.451
-183.139
-183.798
-184.421
-185.004
-185.541
-186.026
-186.453
-186.816
-187.11
-187.33
-187.469
-187.524
-187.489
-187.361
-187.135
-186.808
-186.377
-185.839
-185.193
-184.437
-183.571
-182.595
-181.51
-180.318
-179.023
-177.628
-176.136
-174.554
-172.886
-171.14
-169.321
-167.438
-165.498
-163.512
-161.487
-159.434
-157.367
-155.296
-153.24
-151.212
-149.232
-147.317
-145.486
-143.76
-142.159
-140.701
-139.403
-138.28
-137.35
-136.629
-136.132
-135.874
-135.866
-136.117
-136.636
-137.425
-138.49
-139.826
-141.429
-143.29
-145.404
-147.767
-150.387
-153.266
-156.406
-159.805
-163.455
-167.35
-171.479
-175.825
-180.362
-185.06
-189.881
-194.788
-199.75
-204.73
-209.691
-214.576
-219.291
-223.765
-227.95
-231.827
-235.437
-238.818
-241.98
-244.992
-247.976
-251.02
-254.193
-257.456
-260.589
-263.405
-265.774
-267.524
-268.517
-268.632
-267.729
-265.881
-263.442
-260.72
-257.999
-255.699
-254.134
-253.905
-256.03
-260.823
-268.086
-277.255
-286.716
-295.701
-304.415
-312.818
-321.907
-331.845
-340.936
-347.154
-346.297
-333.088
-303.346
-253.85
-185.101
-101.313
-8.194
87.991
183.177
275.36
362.648
442.988
513.141
570.354
614.852
648.491
672.989
686.786
682.302
649.102
579.032
471.167
334.855
186.872
45.373
-75.622
-168.95
-233.696
-272.207
-287.283
-282.552
-262.933
-235.116
-207.97
-189.162
-183.007
-189.831
-204.984
-221.987
-235.128
-240.661
-238.98
-233.094
-226.853
-223.841
-224.942
-229.107
-234.448
-238.539
-240.689
-241.285
-240.342
-238.608
-235.76
-230.68
-224.503
-218.39
-214.03
-214.16
-217.862
-222.854
-227.056
-227.367
-224.11
-219.721
-215.691
-213.891
-214.3
-215.136
-215.556
-214.914
-213.016
-210.5
-207.616
-204.348
-200.778
-196.86
-192.589
-188.076
-183.393
-178.566
-173.637
-168.629
-163.501
-158.236
-152.833
-147.303
-141.691
-136.038
-130.35
-124.632
-118.895
-113.146
-107.397
-101.647
-95.872
-90.062
-84.214
-78.336
-72.458
-66.593
-60.74
-54.891
-49.03
-43.144
-37.235
-31.297
-25.324
-19.315
-13.272
-7.206
-1.143
4.901
10.91
16.872
22.775
28.603
34.337
39.953
45.43
50.742
55.867
60.78
65.451
69.857
73.975
77.784
81.267
84.407
87.184
89.584
91.59
93.189
94.369
95.119
95.429
95.291
94.701
93.656
92.158
90.208
87.811
84.975
81.71
78.027
73.941
69.469
64.628
59.439
53.925
48.11
42.02
35.683
29.127
22.382
15.479
8.447
1.32
-5.873
-13.099
-20.327
-27.527
-34.668
-41.721
-48.658
-55.452
-62.075
-68.503
-74.712
-80.681
-86.389
-91.819
-96.953
-101.777
-106.279
-110.449
-114.278
-117.759
-120.889
-123.664
-126.084
-128.15
-129.866
-131.236
-132.267
-132.967
-133.345
-133.411
-133.179
-132.66
-131.868
-130.818
-129.524
-128.003
-126.27
-124.342
-122.233
-119.962
-117.543
-114.992
-112.326
-109.559
-106.705
-103.779
-100.793
-97.761
-94.694
-91.603
-88.498
-85.389
-82.285
-79.191
-76.117
-73.066
-70.045
-67.057
-64.105
-61.192
-58.319
-55.488
-52.699
-49.951
-47.243
-44.575
-41.945
-39.35
-36.788
-34.256
-31.751
-29.271
-26.812
-24.371
-21.945
-19.53
-17.124
-14.723
-12.325
-9.926
-7.524
-5.117
-2.701
-0.275
2.163
4.615
7.082
9.567
12.07
14.592
17.134
19.696
22.278
24.882
27.507
30.152
32.818
35.504
38.21
40.935
43.679
46.441
49.22
52.015
54.827
57.654
60.495
63.35
66.218
69.099
71.991
74.893
77.806
80.728
83.658
86.595
89.538
92.486
95.439
98.394
101.351
104.308
107.264
110.218
113.167
116.111
119.047
121.974
124.889
127.792
130.678
133.548
136.397
139.225
142.028
144.804
147.551
150.267
152.949
155.594
158.202
160.768
163.293
165.772
168.206
170.591
172.928
175.213
177.448
179.63
181.76
183.837
185.861
187.834
189.755
191.627
193.45
195.226
196.959
198.65
200.303
201.921
203.509
205.071
206.613
208.138
209.653
211.162
212.673
214.19
215.72
217.269
218.842
220.446
222.087
223.772
225.506
227.296
229.148
231.068
233.06
235.129
237.282
239.52
241.85
244.273
246.794
249.413
252.134
254.956
257.881
260.908
264.034
267.257
270.574
273.98
277.47
281.037
284.676
288.378
292.135
295.939
299.778
303.644
307.524
311.407
315.279
319.126
322.929
326.672
330.336
333.902
337.348
340.654
343.8
346.768
349.54
352.101
354.434
356.526
358.359
359.921
361.2
362.19
362.885
363.282
363.38
363.181
362.697
361.936
360.907
359.614
358.052
356.214
354.102
351.718
349.07
346.165
343.012
339.627
336.034
332.265
328.357
324.344
320.254
316.12
311.973
307.871
303.907
300.157
296.662
293.422
290.387
287.506
284.762
282.089
279.353
276.455
273.354
270.117
266.998
264.256
262.044
260.526
259.891
260.238
261.635
263.99
266.915
269.986
272.893
275.267
276.468
275.726
272.397
266.19
257.945
249.071
240.135
231.097
221.103
209.115
195.882
183.261
173.375
168.366
169.86
180.297
203.591
244.662
307.573
392.576
495.898
609.78
724.381
831.483
924.657
1000.609
1059.177
1100.612
1125.271
1131.712
1115.86
1073.452
1001.828
902.713
784.035
657.821
537.122
432.359
348.036
283.919
237.228
205.146
187.279
182.995
190.166
204.52
218.864
228.474
232.144
231.436
231.117
233.693
238.683
244.475
248.005
247.796
244.502
239.217
233.313
227.713
222.662
218.254
214.648
212.02
210.329
209.393
208.992
208.804
208.559
208.057
207.039
205.292
202.785
199.6
195.903
191.928
187.896
184.006
180.454
177.408
174.958
173.128
171.899
171.224
171.048
171.321
171.988
172.987
174.272
175.8
177.527
179.409
181.396
183.433
185.482
187.52
189.53
191.507
193.453
195.371
197.272
199.175
201.089
203.025
204.991
206.992
209.037
211.136
213.3
215.535
217.85
220.248
222.731
225.297
227.943
230.664
233.452
236.296
239.189
242.119
245.078
248.053
251.034
254.006
256.954
259.863
262.714
265.488
268.165
270.722
273.139
275.393
277.461
279.319
280.945
282.316
283.41
284.204
284.676
284.807
284.576
283.965
282.957
281.537
279.691
277.407
274.675
271.486
267.836
263.72
259.136
254.085
248.571
242.597
236.172
229.305
222.008
214.295
206.182
197.688
188.833
179.639
170.13
160.331
150.269
139.972
129.469
118.789
107.962
97.02
85.993
74.912
63.808
52.711
41.652
30.66
19.763
8.989
-1.636
-12.087
-22.339
-32.37
-42.16
-51.69
-60.941
-69.899
-78.548
-86.878
-94.879
-102.541
-109.858
-116.827
-123.443
-129.708
-135.621
-141.185
-146.404
-151.284
-155.832
-160.057
-163.967
-167.575
-170.891
-173.929
-176.702
-179.224
-181.509
-183.573
-185.431
-187.097
-188.588
-189.92
-191.106
-192.163
-193.106
-193.948
-194.703
-195.385
-196.007
-196.581
-197.118
-197.628
-198.123
-198.61
-199.098
-199.594
-200.106
-200.639
-201.199
-201.789
-202.413
-203.074
-203.774
-204.515
-205.297
-206.122
-206.988
-207.896
-208.844
-209.831
-210.856
-211.916
-213.009
-214.134
-215.288
-216.468
-217.672
-218.897
-220.141
-221.401
-222.674
-223.96
-225.255
-226.557
-227.865
-229.178
-230.493
-231.809
-233.125
-234.441
-235.755
-237.067
-238.377
-239.683
-240.987
-242.288
-243.586
-244.881
-246.174
-247.464
-248.753
-250.039
-251.324
-252.606
-253.887
-255.166
-256.443
-257.718
-258.99
-260.26
-261.526
-262.788
-264.045
-265.296
-266.54
-267.776
-269.002
-270.217
-271.419
-272.607
-273.778
-274.932
-276.065
-277.176
-278.264
-279.324
-280.357
-281.359
-282.327
-283.261
-284.158
-285.016
-285.833
-286.608
-287.339
-288.025
-288.664
-289.257
-289.801
-290.297
-290.744
-291.142
-291.49
-291.79
-292.042
-292.246
-292.403
-292.514
-292.58
-292.602
-292.582
-292.521
-292.419
-292.28
-292.104
-291.892
-291.647
-291.37
-291.064
-290.728
-290.366
-289.978
-289.566
-289.13
-288.671
-288.19
-287.688
-287.163
-286.616
-286.046
-285.452
-284.832
-284.185
-283.508
-282.799
-282.054
-281.271
-280.445
-279.573
-278.649
-277.671
-276.634
-275.533
-274.364
-273.122
-271.802
-270.4
-268.91
-267.327
-265.646
-263.862
-261.97
-259.966
-257.844
-255.602
-253.236
-250.741
-248.116
-245.359
-242.467
-239.441
-236.278
-232.981
-229.549
-225.987
-222.296
-218.481
-214.548
-210.502
-206.35
-202.101
-197.762
-193.343
-188.853
-184.304
-179.705
-175.07
-170.411
-165.744
-161.085
-156.451
-151.864
-147.342
-142.908
-138.583
-134.39
-130.349
-126.481
-122.804
-119.335
-116.091
-113.092
-110.354
-107.89
-105.713
-103.833
-102.257
-100.991
-100.037
-99.393
-99.051
-99.006
-99.25
-99.784
-100.615
-101.748
-103.182
-104.909
-106.925
-109.221
-111.79
-114.618
-117.67
-120.908
-124.29
-127.777
-131.34
-134.947
-138.546
-142.057
-145.401
-148.521
-151.399
-154.059
-156.517
-158.771
-160.841
-162.807
-164.751
-166.724
-168.697
-170.512
-171.986
-172.996
-173.423
-173.127
-172.028
-170.087
-167.339
-164.019
-160.435
-156.899
-153.756
-151.421
-150.248
-150.553
-152.714
-156.965
-163.406
-172.087
-182.577
-193.703
-204.187
-212.71
-218.454
-221.947
-223.28
-221.206
-212.842
-192.965
-156.94
-103.208
-33.388
47.414
133.142
219.857
305.516
389.179
469.49
543.357
606.903
657.953
697.907
729.615
754.51
769.418
764.135
726.719
650.052
535.502
395.394
248.354
111.828
-1.743
-86.472
-141.924
-170.568
-175.731
-162.755
-139.402
-113.503
-93.222
-84.17
-86.615
-98.146
-113.523
-126.526
-133.896
-134.753
-130.789
-125.89
-123.267
-124.301
-128.716
-134.711
-140.035
-143.511
-144.86
-144.296
-142.581
-140.245
-137.49
-134.555
-131.619
-128.867
-126.579
-124.997
-124.156
-123.996
-124.427
-125.311
-126.548
-128.045
-129.631
-131.135
-132.464
-133.58
-134.474
-135.153
-135.58
-135.69
-135.461
-134.901
-134.028
-132.857
-131.379
-129.564
-127.381
-124.832
-121.939
-118.72
-115.185
-111.333
-107.173
-102.732
-98.067
-93.245
-88.308
-83.278
-78.17
-72.996
-67.779
-62.546
-57.32
-52.106
-46.906
-41.726
-36.571
-31.455
-26.381
-21.339
-16.308
-11.263
-6.193
-1.094
4.032
9.179
14.343
19.518
24.691
29.84
34.946
39.992
44.96
49.835
54.596
59.219
63.676
67.942
71.99
75.797
79.34
82.598
85.549
88.174
90.458
92.387
93.947
95.125
95.907
96.282
96.239
95.77
94.869
93.531
91.752
89.533
86.876
83.787
80.272
76.34
72.003
67.274
62.169
56.706
50.903
44.782
38.366
31.68
24.75
17.602
10.265
2.768
-4.86
-12.59
-20.391
-28.233
-36.088
-43.927
-51.719
-59.438
-67.054
-74.543
-81.879
-89.037
-95.993
-102.728
-109.22
-115.451
-121.405
-127.069
-132.429
-137.475
-142.197
-146.591
-150.65
-154.373
-157.758
-160.806
-163.52
-165.904
-167.965
-169.71
-171.147
-172.289
-173.145
-173.729
-174.053
-174.133
-173.983
-173.619
-173.056
-172.311
-171.4
-170.34
-169.147
-167.838
-166.428
-164.933
-163.367
-161.747
-160.084
-158.393
-156.685
-154.972
-153.264
-151.571
-149.902
-148.264
-146.663
-145.106
-143.598
-142.142
-140.741
-139.397
-138.112
-136.885
-135.717
-134.606
-133.551
-132.55
-131.6
-130.698
-129.841
-129.024
-128.243
-127.495
-126.775
-126.078
-125.401
-124.738
-124.086
-123.442
-122.8
-122.159
-121.515
-120.864
-120.206
-119.538
-118.859
-118.167
-117.462
-116.743
-116.011
-115.266
-114.508
-113.74
-112.962
-112.177
-111.387
-110.593
-109.799
-109.008
-108.221
-107.444
-106.678
-105.928
-105.196
-104.486
-103.801
-103.145
-102.52
-101.93
-101.377
-100.864
-100.393
-99.965
-99.583
-99.248
-98.96
-98.721
-98.53
-98.387
-98.292
-98.245
-98.244
-98.287
-98.374
-98.502
-98.67
-98.874
-99.112
-99.381
-99.679
-100.002
-100.346
-100.708
-101.085
-101.472
-101.865
-102.261
-102.657
-103.047
-103.427
-103.795
-104.147
-104.478
-104.786
-105.067
-105.318
-105.538
-105.722
-105.87
-105.979
-106.049
-106.077
-106.063
-106.006
-105.907
-105.765
-105.58
-105.353
-105.086
-104.778
-104.433
-104.051
-103.634
-103.185
-102.707
-102.201
-101.671
-101.119
-100.549
-99.964
-99.367
-98.762
-98.153
-97.543
-96.935
-96.334
-95.741
-95.162
-94.597
-94.051
-93.526
-93.023
-92.544
-92.092
-91.666
-91.269
-90.899
-90.557
-90.243
-89.954
-89.689
-89.446
-89.222
-89.014
-88.819
-88.633
-88.452
-88.272
-88.087
-87.893
-87.685
-87.456
-87.201
-86.914
-86.588
-86.216
-85.791
-85.307
-84.757
-84.135
-83.433
-82.647
-81.77
-80.796
-79.72
-78.539
-77.247
-75.842
-74.321
-72.682
-70.924
-69.047
-67.053
-64.943
-62.721
-60.389
-57.952
-55.416
-52.786
-50.07
-47.275
-44.411
-41.487
-38.513
-35.503
-32.469
-29.43
-26.401
-23.402
-20.452
-17.572
-14.785
-12.11
-9.569
-7.181
-4.962
-2.931
-1.105
0.498
1.863
2.977
3.828
4.409
4.712
4.733
4.473
3.938
3.134
2.069
0.746
-0.843
-2.701
-4.83
-7.229
-9.89
-12.805
-15.964
-19.348
-22.93
-26.676
-30.547
-34.505
-38.52
-42.555
-46.573
-50.518
-54.295
-57.828
-61.066
-63.983
-66.607
-68.984
-71.131
-73.122
-75.098
-77.15
-79.341
-81.656
-83.884
-85.787
-87.191
-87.864
-87.589
-86.259
-83.77
-80.139
-75.708
-70.935
-66.215
-62.093
-59.148
-57.737
-58.528
-62.158
-68.497
-77.398
-88.174
-99.318
-109.907
-118.889
-125.37
-129.542
-131.314
-130.087
-123.958
-108.832
-79.528
-31.771
35.393
119.031
212.869
309.87
405.424
496.83
582.455
660.827
728.959
784.416
827.872
861.306
886.096
900.443
895.902
861.407
789.953
681.72
547.349
404.664
270.25
156.11
67.779
4.901
-33.905
-49.616
-44.79
-24.205
4.373
30.256
45.049
45.784
34.252
17.55
3.732
-2.689
-0.415
7.983
17.437
24.192
26.872
25.664
22.279
18.485
14.044
8.796
3.891
0.55
1.103
7.348
17.431
27.966
35.612
37.136
33.003
26.786
21.122
18.798
20.696
24.419
28.913
33.058
35.567
37.2
37.582
36.853
36.758
38.218
42.703
50.484
59.702
68.918
76.677
82.582
87.857
93.284
99.343
106.137
113.077
119.88
126.545
133.045
139.464
145.822
152.05
158.142
164.119
169.987
175.749
181.409
186.976
192.469
197.907
203.307
208.669
213.997
219.296
224.569
229.817
235.038
240.228
245.382
250.495
255.565
260.588
265.559
270.473
275.321
280.096
284.788
289.386
293.877
298.246
302.479
306.557
310.464
314.182
317.693
320.977
324.017
326.793
329.286
331.478
333.353
334.892
336.079
336.9
337.34
337.388
337.031
336.26
335.069
333.451
331.402
328.921
326.008
322.665
318.897
314.71
310.113
305.116
299.733
293.978
287.87
281.427
274.67
267.624
260.311
252.76
244.995
237.047
228.943
220.715
212.391
204.003
195.581
187.156
178.757
170.416
162.16
154.018
146.018
138.185
130.544
123.119
115.932
109.001
102.347
95.986
89.932
84.199
78.798
73.738
69.025
64.665
60.66
57.012
53.719
50.779
48.186
45.934
44.015
42.42
41.136
40.153
39.456
39.03
38.861
38.932
39.226
39.726
40.414
41.273
42.283
43.428
44.69
46.051
47.493
49.002
50.559
52.151
53.761
55.377
56.984
58.572
60.128
61.642
63.105
64.509
65.847
67.111
68.298
69.402
70.421
71.353
72.194
72.946
73.607
74.179
74.663
75.061
75.376
75.61
75.767
75.851
75.865
75.815
75.703
75.535
75.315
75.048
74.737
74.388
74.005
73.592
73.153
72.691
72.21
71.714
71.204
70.685
70.158
69.626
69.09
68.552
68.013
67.474
66.937
66.402
65.868
65.337
64.809
64.283
63.759
63.237
62.716
62.197
61.679
61.161
60.642
60.124
59.604
59.083
58.561
58.036
57.51
56.981
56.45
55.917
55.381
54.844
54.304
53.763
53.22
52.676
52.131
51.586
51.041
50.497
49.953
49.412
48.872
48.335
47.801
47.271
46.745
46.223
45.706
45.194
44.687
44.185
43.689
43.199
42.715
42.236
41.763
41.296
40.834
40.377
39.926
39.479
39.036
38.598
38.164
37.733
37.307
36.883
36.462
36.045
35.63
35.217
34.807
34.4
33.995
33.592
33.192
32.793
32.397
32.003
31.611
31.22
30.832
30.444
30.058
29.673
29.287
28.901
28.515
28.126
27.735
27.34
26.94
26.535
26.122
25.7
25.267
24.822
24.363
23.888
23.394
22.879
22.342
21.78
21.19
20.57
19.918
19.232
18.508
17.744
16.938
16.089
15.193
14.251
13.259
12.217
11.125
9.981
8.785
7.538
6.24
4.892
3.496
2.054
0.569
-0.957
-2.519
-4.113
-5.735
-7.38
-9.042
-10.715
-12.393
-14.069
-15.737
-17.39
-19.019
-20.618
-22.177
-23.69
-25.146
-26.539
-27.858
-29.096
-30.244
-31.295
-32.241
-33.075
-33.788
-34.376
-34.831
-35.149
-35.324
-35.352
-35.231
-34.958
-34.532
-33.953
-33.223
-32.343
-31.316
-30.147
-28.84
-27.4
-25.834
-24.151
-22.359
-20.468
-18.488
-16.432
-14.314
-12.151
-9.961
-7.762
-5.574
-3.419
-1.319
0.704
2.629
4.435
6.104
7.616
8.952
10.095
11.025
11.726
12.186
12.394
12.34
12.018
11.424
10.563
9.438
8.054
6.412
4.505
2.329
-0.12
-2.844
-5.839
-9.098
-12.613
-16.365
-20.327
-24.47
-28.762
-33.165
-37.653
-42.191
-46.739
-51.256
-55.67
-59.895
-63.875
-67.575
-70.997
-74.193
-77.205
-80.08
-82.94
-85.932
-89.155
-92.652
-96.331
-99.984
-103.43
-106.524
-109.053
-110.788
-111.585
-111.338
-110.123
-108.24
-105.916
-103.643
-102.324
-102.676
-105.313
-110.027
-115.495
-121.07
-126.845
-133.996
-144.701
-159.28
-176.268
-193.181
-206.624
-214.375
-214.897
-205.288
-182.024
-141.399
-80.312
0.279
96.45
203.016
312.589
419.204
517.52
601.84
670.096
721.652
757.438
779.619
786.501
773.495
734.658
665.277
566.574
446.317
316.853
191.257
79.904
-11.504
-81.378
-129.775
-157.938
-167.556
-161.531
-145.624
-126.675
-111.379
-104.23
-105.015
-110.634
-116.732
-119.502
-118.391
-114.918
-111.31
-109.701
-110.42
-112.584
-115.121
-117.054
-118.131
-118.545
-118.479
-118.037
-117.182
-115.945
-114.493
-113.002
-111.614
-110.437
-109.52
-108.951
-108.855
-109.23
-109.969
-110.922
-111.899
-112.725
-113.263
-113.373
-112.919
-111.837
-110.121
-107.794
-104.918
-101.554
-97.756
-93.587
-89.114
-84.392
-79.473
-74.408
-69.242
-64.027
-58.813
-53.635
-48.518
-43.476
-38.512
-33.625
-28.81
-24.055
-19.344
-14.664
-10.006
-5.362
-0.723
3.917
8.571
13.246
17.952
22.695
27.48
32.31
37.184
42.101
47.059
52.05
57.068
62.107
67.158
72.215
77.268
82.308
87.322
92.298
97.222
102.078
106.848
111.514
116.056
120.452
124.682
128.723
132.555
136.154
139.497
142.564
145.332
147.781
149.889
151.637
153.008
153.983
154.547
154.686
154.387
153.641
152.438
150.771
148.637
146.033
142.959
139.417
135.411
130.949
126.038
120.691
114.921
108.743
102.176
95.24
87.957
80.351
72.447
64.273
55.856
47.227
38.415
29.452
20.368
11.197
1.97
-7.282
-16.525
-25.73
-34.864
-43.899
-52.805
-61.554
-70.119
-78.476
-86.599
-94.468
-102.061
-109.359
-116.346
-123.005
-129.324
-135.291
-140.898
-146.136
-151.002
-155.491
-159.602
-163.338
-166.699
-169.691
-172.321
-174.595
-176.524
-178.119
-179.391
-180.354
-181.023
-181.413
-181.54
-181.421
-181.073
-180.514
-179.762
-178.835
-177.752
-176.53
-175.188
-173.743
-172.212
-170.613
-168.961
-167.272
-165.562
-163.843
-162.131
-160.436
-158.771
-157.146
-155.571
-154.054
-152.602
-151.222
-149.92
-148.7
-147.566
-146.519
-145.563
-144.697
-143.921
-143.236
-142.64
-142.13
-141.704
-141.359
-141.091
-140.896
-140.77
-140.709
-140.706
-140.757
-140.856
-140.998
-141.178
-141.39
-141.628
-141.886
-142.159
-142.443
-142.73
-143.018
-143.3
-143.573
-143.832
-144.073
-144.293
-144.488
-144.654
-144.79
-144.892
-144.959
-144.988
-144.978
-144.928
-144.835
-144.7
-144.521
-144.299
-144.032
-143.72
-143.365
-142.965
-142.521
-142.034
-141.505
-140.934
-140.323
-139.672
-138.984
-138.258
-137.496
-136.701
-135.873
-135.014
-134.126
-133.21
-132.268
-131.302
-130.314
-129.306
-128.279
-127.235
-126.177
-125.106
-124.025
-122.935
-121.839
-120.739
-119.637
-118.536
-117.437
-116.344
-115.258
-114.182
-113.119
-112.071
-111.039
-110.027
-109.036
-108.069
-107.128
-106.214
-105.33
-104.477
-103.657
-102.871
-102.121
-101.408
-100.733
-100.097
-99.5
-98.943
-98.425
-97.947
-97.508
-97.108
-96.744
-96.416
-96.122
-95.859
-95.626
-95.418
-95.233
-95.066
-94.914
-94.772
-94.635
-94.499
-94.358
-94.206
-94.039
-93.851
-93.636
-93.387
-93.1
-92.768
-92.385
-91.944
-91.44
-90.866
-90.217
-89.487
-88.67
-87.762
-86.757
-85.651
-84.441
-83.122
-81.692
-80.149
-78.49
-76.714
-74.823
-72.816
-70.695
-68.463
-66.123
-63.679
-61.136
-58.499
-55.776
-52.972
-50.096
-47.157
-44.163
-41.125
-38.054
-34.961
-31.86
-28.768
-25.701
-22.674
-19.708
-16.82
-14.03
-11.357
-8.818
-6.43
-4.208
-2.167
-0.322
1.313
2.723
3.899
4.833
5.518
5.951
6.129
6.055
5.736
5.18
4.394
3.382
2.138
0.66
-1.052
-2.996
-5.163
-7.545
-10.13
-12.903
-15.839
-18.909
-22.077
-25.312
-28.589
-31.88
-35.151
-38.352
-41.4
-44.23
-46.803
-49.111
-51.19
-53.083
-54.817
-56.46
-58.132
-59.909
-61.819
-63.811
-65.692
-67.237
-68.285
-68.668
-68.217
-66.889
-64.684
-61.653
-58.085
-54.393
-50.927
-48.034
-46.026
-45.034
-45.42
-47.891
-52.871
-60.215
-68.884
-76.948
-82.531
-85.079
-85.663
-86.117
-88.376
-92.512
-95.774
-93.694
-80.184
-49.785
0.77
72.188
161.472
263.541
371.291
476.721
573.108
654.216
716.664
759.803
783.462
788.581
774.517
738.78
679.931
597.995
497.177
386.371
276.074
176.725
95.082
32.945
-10.916
-39.778
-55.747
-59.603
-52.931
-38.073
-20.146
-5.108
4.024
6.723
6.047
6.55
9.97
16.003
22.636
26.923
27.892
26.428
23.744
20.834
18.373
15.613
11.456
7.06
3.474
2.28
6.057
13.414
21.631
28.345
30.063
27.044
22.054
16.941
14.035
13.649
14.082
14.595
14.677
14.298
14.256
14.834
15.959
17.615
19.657
22.005
24.692
27.692
30.945
34.422
38.092
41.907
45.816
49.76
53.687
57.572
61.405
65.184
68.908
72.58
76.212
79.821
83.421
87.021
90.629
94.252
97.9
101.585
105.317
109.109
112.969
116.904
120.916
125.01
129.184
133.436
137.762
142.155
146.609
151.118
155.675
160.274
164.904
169.556
174.217
178.874
183.513
188.117
192.668
197.148
201.537
205.814
209.959
213.949
217.764
221.381
224.779
227.935
230.829
233.438
235.745
237.728
239.37
240.655
241.567
242.092
242.218
241.936
241.237
240.114
238.563
236.583
234.173
231.335
228.073
224.393
220.304
215.816
210.941
205.694
200.091
194.151
187.894
181.342
174.516
167.442
160.145
152.652
144.989
137.184
129.264
121.26
113.198
105.107
97.014
88.948
80.935
73.001
65.17
57.467
49.914
42.533
35.343
28.363
21.61
15.098
8.843
2.856
-2.854
-8.276
-13.405
-18.234
-22.761
-26.983
-30.899
-34.513
-37.825
-40.84
-43.564
-46.005
-48.169
-50.066
-51.706
-53.101
-54.263
-55.203
-55.935
-56.473
-56.83
-57.02
-57.059
-56.959
-56.735
-56.401
-55.97
-55.457
-54.874
-54.232
-53.545
-52.824
-52.08
-51.322
-50.561
-49.805
-49.064
-48.343
-47.651
-46.994
-46.376
-45.802
-45.277
-44.804
-44.385
-44.022
-43.716
-43.469
-43.281
-43.15
-43.077
-43.059
-43.096
-43.186
-43.325
-43.511
-43.742
-44.015
-44.326
-44.672
-45.051
-45.459
-45.893
-46.349
-46.826
-47.319
-47.826
-48.345
-48.872
-49.406
-49.944
-50.485
-51.027
-51.568
-52.108
-52.646
-53.181
-53.713
-54.241
-54.767
-55.291
-55.813
-56.335
-56.858
-57.382
-57.91
-58.444
-58.984
-59.534
-60.095
-60.668
-61.257
-61.862
-62.487
-63.133
-63.801
-64.494
-65.213
-65.958
-66.731
-67.533
-68.363
-69.223
-70.112
-71.029
-71.973
-72.942
-73.935
-74.95
-75.982
-77.03
-78.09
-79.156
-80.226
-81.294
-82.356
-83.407
-84.441
-85.452
-86.436
-87.386
-88.296
-89.161
-89.973
-90.727
-91.417
-92.036
-92.58
-93.042
-93.419
-93.704
-93.895
-93.987
-93.977
-93.864
-93.644
-93.318
-92.884
-92.343
-91.697
-90.949
-90.102
-89.159
-88.127
-87.012
-85.82
-84.559
-83.237
-81.863
-80.446
-78.996
-77.525
-76.044
-74.567
-73.107
-71.682
-70.308
-69.001
-67.782
-66.666
-65.671
-64.815
-64.112
-63.575
-63.218
-63.053
-63.094
-63.353
-63.841
-64.564
-65.529
-66.739
-68.195
-69.899
-71.847
-74.03
-76.441
-79.074
-81.931
-85.018
-88.342
-91.896
-95.67
-99.66
-103.856
-108.25
-112.831
-117.566
-122.416
-127.345
-132.319
-137.311
-142.299
-147.234
-152.039
-156.658
-161.058
-165.251
-169.292
-173.213
-177.007
-180.685
-184.312
-187.917
-191.479
-194.912
-198.027
-200.609
-202.572
-203.953
-204.733
-205.016
-205.084
-204.841
-204.325
-204.187
-204.553
-206.184
-210.305
-216.128
-222.959
-229.548
-233.261
-234.005
-232.823
-231.247
-232.355
-237.44
-245.707
-255.838
-265.629
-273.248
-277.874
-277.456
-268.746
-247.766
-210.283
-155.114
-84.06
-1.795
83.977
166.003
237.52
293.289
332.448
356.52
368.624
372.429
368.018
352.151
320.481
268.984
197.758
112.476
22.621
-61.168
-130.29
-180.413
-212.585
-230.287
-237.293
-237.919
-234.359
-228.872
-225.163
-224.506
-227.287
-232.41
-236.194
-236.97
-234.987
-231.392
-228.592
-227.738
-228.485
-230.124
-231.865
-233.394
-234.71
-235.839
-236.717
-237.139
-237.088
-236.692
-236.001
-235.109
-234.153
-233.216
-232.48
-232.145
-232.23
-232.676
-233.39
-234.221
-235.042
-235.727
-236.109
-236.07
-235.617
-234.741
-233.419
-231.698
-229.544
-227.127
-224.944
-222.949
-220.733
-217.641
-212.408
-205.107
-197.104
-189.793
-185.162
-183.443
-182.841
-181.989
-179.331
-174.703
-169.901
-165.65
-162.065
-158.623
-153.45
-146.363
-138.715
-131.809
-127.606
-126.246
-125.861
-125.042
-122.308
-117.394
-111.632
-105.849
-100.61
-96.097
-91.782
-87.427
-83.047
-78.628
-74.257
-69.961
-65.676
-61.385
-57.111
-52.86
-48.643
-44.475
-40.374
-36.36
-32.46
-28.692
-25.066
-21.595
-18.294
-15.178
-12.263
-9.561
-7.086
-4.85
-2.866
-1.146
0.301
1.464
2.337
2.912
3.186
3.155
2.815
2.168
1.213
-0.048
-1.609
-3.466
-5.612
-8.038
-10.735
-13.691
-16.892
-20.324
-23.973
-27.82
-31.848
-36.04
-40.374
-44.832
-49.393
-54.036
-58.74
-63.483
-68.244
-73.001
-77.734
-82.422
-87.044
-91.581
-96.013
-100.324
-104.495
-108.511
-112.356
-116.016
-119.478
-122.729
-125.758
-128.556
-131.117
-133.433
-135.498
-137.303
-138.846
-140.128
-141.145
-141.893
-142.366
-142.558
-142.473
-142.13
-141.538
-140.695
-139.616
-138.319
-136.829
-135.183
-133.387
-131.397
-129.198
-126.807
-124.201
-121.306
-118.112
-114.635
-110.9
-107.134
-103.168
-98.299
-92.675
-86.835
-81.984
-80.687
-82.771
-85.688
-86.605
-81.022
-68.753
-54.265
-41.343
-34.692
-35.149
-38.369
-41.224
-40.912
-36.516
-30.675
-25.512
-21.791
-19.412
-16.718
-11.282
-2.681
7.223
15.566
18.1
12.859
2.708
-7.185
-10.376
-2.49
14.761
35.583
53.1
61.999
61.892
56.382
49.289
43.131
38.206
33.126
28.424
26.323
28.906
37.914
51.366
64.491
73.463
75.05
69.421
60.728
52.826
49.18
51.6
57.885
65.111
71.067
73.918
74.312
73.95
73.631
74.054
75.183
76.369
77.496
78.615
79.736
80.988
82.388
83.842
85.332
86.869
88.441
90.05
91.7
93.385
95.118
96.927
98.782
100.638
102.52
104.423
106.338
108.346
110.221
111.74
113.218
114.752
116.918
120.408
124.454
128.543
131.913
133.518
134.276
134.968
136.124
138.626
141.837
145.109
148.294
150.996
153.435
155.899
158.324
160.743
163.128
165.413
167.629
169.798
171.898
173.917
175.849
177.681
179.4
180.994
182.447
183.745
184.884
185.861
186.668
187.298
187.746
188.008
188.083
187.972
187.677
187.2
186.548
185.733
184.765
183.656
182.411
181.027
179.501
177.837
176.037
174.105
172.055
169.896
167.648
165.338
162.989
160.623
158.265
155.929
153.638
151.425
149.32
147.379
145.672
144.238
143.099
142.235
141.565
141.011
140.511
139.964
139.27
138.379
137.303
136.215
135.417
135.176
135.701
137.121
139.53
143.022
147.548
152.758
158.163
163.269
167.594
170.902
172.723
172.147
168.7
162.544
154.774
147.625
142.993
141.114
140.672
139.252
134.39
126.178
118.27
116.205
126.965
156.049
203.874
267.699
341.864
419.008
494.282
563.607
623.412
671.536
705.581
725.127
731.469
726.374
711.189
684.673
644.907
590.316
522.138
446.212
370.387
303.398
251.052
214.382
191.532
178.299
171.856
172.162
179.165
192.559
209.763
224.803
233.209
233.13
225.378
215.095
206.879
202.742
203.423
206.488
208.988
209.763
207.941
204.195
200.213
196.709
194.26
192.948
192.073
191.34
190.664
189.906
189.128
188.265
187.066
185.445
183.441
181.115
178.619
176.112
173.68
171.435
169.514
167.983
166.873
166.193
165.9
165.95
166.318
166.966
167.859
168.97
170.263
171.701
173.25
174.866
176.516
178.177
179.829
181.457
183.055
184.617
186.148
187.659
189.154
190.639
192.112
193.575
195.029
196.48
197.932
199.388
200.851
202.322
203.802
205.291
206.788
208.289
209.789
211.279
212.755
214.211
215.642
217.042
218.404
219.722
220.988
222.196
223.336
224.399
225.375
226.253
227.023
227.672
228.19
228.566
228.788
228.845
228.728
228.424
227.926
227.222
226.305
225.166
223.8
222.199
220.359
218.276
215.946
213.369
210.543
207.471
204.153
200.593
196.795
192.767
188.513
184.044
179.367
174.494
169.435
164.204
158.814
153.279
147.615
141.839
135.966
130.014
124
117.942
111.858
105.764
99.679
93.621
87.605
81.648
75.767
69.976
64.289
58.72
53.282
47.986
42.841
37.858
33.044
28.407
23.951
19.682
15.604
11.717
8.024
4.524
1.216
-1.902
-4.833
-7.581
-10.153
-12.553
-14.789
-16.868
-18.8
-20.591
-22.253
-23.794
-25.225
-26.557
-27.8
-28.965
-30.063
-31.104
-32.099
-33.058
-33.991
-34.908
-35.818
-36.73
-37.651
-38.59
-39.556
-40.554
-41.591
-42.672
-43.802
-44.988
-46.233
-47.542
-48.915
-50.354
-51.861
-53.438
-55.084
-56.802
-58.589
-60.441
-62.356
-64.33
-66.361
-68.449
-70.584
-72.76
-74.969
-77.203
-79.463
-81.752
-84.065
-86.399
-88.746
-91.092
-93.445
-95.82
-98.2
-100.574
-102.925
-105.216
-107.474
-109.738
-111.992
-114.232
-116.503
-118.806
-121.204
-123.804
-126.58
-129.498
-132.574
-135.726
-138.827
-141.833
-144.608
-146.95
-148.814
-150.124
-150.832
-151.096
-151.135
-151.068
-151.081
-151.388
-152.102
-153.412
-155.416
-157.951
-160.774
-163.711
-166.594
-169.286
-171.682
-173.6
-174.931
-175.761
-176.26
-176.571
-176.788
-176.954
-177.095
-177.292
-177.603
-178.008
-178.436
-178.818
-179.12
-179.34
-179.496
-179.58
-179.58
-179.495
-179.333
-179.106
-178.823
-178.477
-178.058
-177.556
-176.966
-176.29
-175.528
-174.681
-173.749
-172.731
-171.626
-170.437
-169.166
-167.814
-166.385
-164.881
-163.306
-161.663
-159.956
-158.192
-156.375
-154.508
-152.596
-150.644
-148.656
-146.639
-144.6
-142.548
-140.492
-138.444
-136.413
-134.412
-132.454
-130.551
-128.717
-126.964
-125.303
-123.745
-122.3
-120.981
-119.8
-118.768
-117.895
-117.19
-116.659
-116.307
-116.14
-116.158
-116.358
-116.737
-117.293
-118.025
-118.942
-120.05
-121.351
-122.847
-124.534
-126.402
-128.441
-130.635
-132.961
-135.396
-137.915
-140.49
-143.102
-145.728
-148.338
-150.904
-153.371
-155.669
-157.755
-159.609
-161.235
-162.692
-164.023
-165.25
-166.451
-167.723
-169.104
-170.617
-172.192
-173.614
-174.729
-175.472
-175.733
-175.456
-174.64
-173.211
-171.212
-168.941
-166.616
-164.405
-162.583
-161.261
-160.502
-160.684
-162.125
-164.845
-168.999
-174.23
-179.395
-183.757
-186.517
-187.18
-186.688
-185.264
-181.863
-174.421
-158.412
-129.308
-84.777
-24.605
47.513
124.774
199.946
266.424
320.072
360.751
391.56
416.654
440.204
464.705
488.546
507.688
516.029
505.357
470.086
408.535
323.518
224.529
123.925
33.342
-37.728
-85.112
-109.424
-113.703
-103.113
-83.433
-60.226
-38.935
-23.596
-15.981
-15.224
-18.593
-22.951
-26.052
-27.819
-29.466
-32.41
-37.714
-45.04
-53.215
-61.053
-67.462
-71.954
-74.611
-75.675
-75.485
-74.401
-72.767
-70.944
-69.309
-68.187
-67.71
-67.85
-68.527
-69.597
-70.887
-72.228
-73.409
-74.204
-74.492
-74.229
-73.395
-72.014
-70.105
-67.672
-64.751
-61.393
-57.635
-53.509
-49.041
-44.245
-39.158
-33.825
-28.296
-22.626
-16.853
-11.003
-5.103
0.828
6.777
12.731
18.685
24.643
30.603
36.56
42.511
48.452
54.379
60.294
66.196
72.088
77.968
83.832
89.678
95.501
101.296
107.055
112.771
118.434
124.037
129.57
135.026
140.397
145.676
150.852
155.916
160.861
165.674
170.347
174.866
179.222
183.4
187.39
191.179
194.754
198.103
201.213
204.074
206.671
208.996
211.035
212.78
214.22
215.348
216.155
216.635
216.782
216.593
216.065
215.197
213.988
212.44
210.556
208.341
205.8
202.941
199.772
196.302
192.544
188.509
184.211
179.667
174.892
169.903
164.718
159.358
153.841
148.188
142.421
136.56
130.627
124.643
118.631
112.611
106.606
100.636
94.721
88.882
83.136
77.503
71.999
66.64
61.44
56.414
51.574
46.93
42.492
38.269
34.268
30.493
26.95
23.641
20.567
17.728
15.123
12.749
10.602
8.679
6.971
5.473
4.177
3.073
2.152
1.402
0.814
0.375
0.073
-0.105
-0.171
-0.139
-0.022
0.168
0.417
0.713
1.044
1.397
1.761
2.125
2.478
2.811
3.114
3.379
3.598
3.764
3.871
3.914
3.887
3.788
3.612
3.358
3.024
2.609
2.112
1.535
0.878
0.143
-0.667
-1.549
-2.501
-3.518
-4.595
-5.728
-6.912
-8.142
-9.412
-10.718
-12.053
-13.411
-14.789
-16.179
-17.578
-18.979
-20.379
-21.773
-23.158
-24.529
-25.883
-27.218
-28.531
-29.821
-31.085
-32.323
-33.534
-34.718
-35.875
-37.006
-38.112
-39.195
-40.256
-41.297
-42.323
-43.335
-44.337
-45.333
-46.327
-47.322
-48.322
-49.332
-50.356
-51.398
-52.462
-53.552
-54.671
-55.823
-57.011
-58.238
-59.506
-60.818
-62.175
-63.577
-65.027
-66.523
-68.066
-69.654
-71.286
-72.961
-74.676
-76.428
-78.214
-80.029
-81.87
-83.73
-85.606
-87.491
-89.378
-91.262
-93.135
-94.989
-96.819
-98.617
-100.375
-102.086
-103.743
-105.339
-106.865
-108.316
-109.685
-110.964
-112.148
-113.231
-114.209
-115.076
-115.829
-116.463
-116.976
-117.365
-117.628
-117.765
-117.774
-117.655
-117.409
-117.037
-116.541
-115.924
-115.186
-114.334
-113.371
-112.304
-111.138
-109.88
-108.536
-107.115
-105.626
-104.077
-102.478
-100.836
-99.161
-97.466
-95.763
-94.066
-92.387
-90.741
-89.139
-87.596
-86.127
-84.743
-83.45
-82.253
-81.153
-80.159
-79.289
-78.555
-77.962
-77.517
-77.223
-77.082
-77.104
-77.284
-77.605
-78.059
-78.628
-79.308
-80.111
-81.04
-82.099
-83.278
-84.535
-85.833
-87.144
-88.428
-89.652
-90.778
-91.747
-92.532
-93.134
-93.535
-93.728
-93.684
-93.325
-92.613
-91.548
-90.178
-88.649
-87.133
-85.756
-84.697
-84.159
-84.257
-85.063
-86.456
-88.058
-89.496
-90.412
-90.427
-89.242
-86.662
-82.628
-77.426
-71.674
-66.06
-61.4
-58.554
-58.276
-61.273
-67.752
-77.198
-88.782
-101.342
-114.035
-126.526
-137.954
-147.03
-151.192
-146.764
-130.618
-100.135
-55.065
2.575
69.927
142.66
217.392
291.672
362.878
429.296
489.192
541.104
585.013
622.527
655.088
682.671
702.774
707.733
688.244
637.155
551.245
436.609
306.763
177.529
64.371
-23.305
-83.203
-117.129
-129.293
-124.65
-108.394
-86.5
-66.646
-55.618
-56.582
-69.109
-87.717
-104.67
-114.496
-114.653
-106.834
-96.14
-87.397
-83.378
-84.463
-88.664
-93.294
-96.838
-98.855
-99.587
-99.704
-99.52
-99.001
-98.186
-97.111
-95.887
-94.737
-93.864
-93.446
-93.558
-94.165
-95.14
-96.306
-97.478
-98.474
-99.13
-99.3
-98.896
-97.902
-96.336
-94.25
-91.701
-88.743
-85.434
-81.838
-78.006
-73.983
-69.818
-65.556
-61.252
-56.965
-52.736
-48.593
-44.558
-40.636
-36.828
-33.132
-29.538
-26.03
-22.596
-19.227
-15.916
-12.657
-9.443
-6.262
-3.105
0.041
3.183
6.33
9.486
12.655
15.839
19.037
22.247
25.465
28.686
31.909
35.128
38.34
41.54
44.721
47.874
50.992
54.063
57.075
60.015
62.868
65.619
68.251
70.749
73.094
75.271
77.261
79.048
80.614
81.943
83.019
83.827
84.352
84.581
84.501
84.102
83.375
82.311
80.905
79.152
77.05
74.597
71.796
68.649
65.161
61.34
57.194
52.734
47.973
42.925
37.608
32.039
26.239
20.23
14.033
7.675
1.178
-5.43
-12.124
-18.877
-25.662
-32.452
-39.219
-45.938
-52.582
-59.126
-65.543
-71.811
-77.908
-83.812
-89.504
-94.966
-100.181
-105.134
-109.812
-114.202
-118.295
-122.084
-125.563
-128.728
-131.577
-134.113
-136.34
-138.262
-139.887
-141.221
-142.273
-143.054
-143.578
-143.864
-143.929
-143.796
-143.478
-142.99
-142.354
-141.588
-140.713
-139.757
-138.726
-137.625
-136.498
-135.38
-134.309
-133.334
-132.439
-131.594
-130.832
-130.178
-129.592
-129.059
-128.526
-127.915
-127.32
-126.849
-126.505
-126.321
-126.362
-126.652
-127.3
-128.432
-129.94
-131.709
-133.717
-135.901
-138.223
-140.677
-143.16
-145.56
-147.948
-150.389
-152.9
-155.53
-158.265
-161.078
-164.008
-167.089
-170.277
-173.537
-176.839
-180.142
-183.447
-186.756
-190.048
-193.305
-196.521
-199.686
-202.794
-205.843
-208.817
-211.704
-214.493
-217.173
-219.738
-222.183
-224.501
-226.686
-228.734
-230.638
-232.395
-234.003
-235.458
-236.759
-237.905
-238.896
-239.732
-240.415
-240.947
-241.332
-241.573
-241.674
-241.639
-241.474
-241.184
-240.777
-240.259
-239.638
-238.922
-238.119
-237.238
-236.288
-235.279
-234.219
-233.119
-231.987
-230.833
-229.667
-228.497
-227.333
-226.182
-225.053
-223.954
-222.892
-221.872
-220.902
-219.985
-219.125
-218.326
-217.589
-216.916
-216.305
-215.757
-215.269
-214.837
-214.459
-214.129
-213.842
-213.592
-213.373
-213.176
-212.993
-212.815
-212.633
-212.438
-212.217
-211.962
-211.662
-211.306
-210.884
-210.385
-209.8
-209.119
-208.333
-207.433
-206.411
-205.26
-203.972
-202.544
-200.971
-199.251
-197.384
-195.369
-193.207
-190.9
-188.453
-185.869
-183.155
-180.319
-177.368
-174.312
-171.163
-167.935
-164.642
-161.299
-157.921
-154.528
-151.14
-147.781
-144.473
-141.242
-138.111
-135.104
-132.241
-129.543
-127.028
-124.712
-122.606
-120.718
-119.058
-117.632
-116.446
-115.503
-114.798
-114.318
-114.043
-113.948
-114.019
-114.243
-114.617
-115.147
-115.824
-116.646
-117.632
-118.779
-120.069
-121.466
-122.869
-124.185
-125.392
-126.473
-127.432
-128.346
-129.262
-130.263
-131.55
-133.255
-135.396
-137.94
-140.722
-143.451
-145.915
-147.857
-148.873
-148.643
-146.912
-143.521
-138.526
-132.111
-124.397
-115.558
-105.918
-95.855
-85.806
-76.14
-67.072
-58.794
-51.546
-45.635
-41.356
-38.848
-38.148
-39.361
-42.64
-48.028
-55.521
-64.441
-73.276
-80.658
-85.137
-86.139
-84.638
-80.697
-73.095
-58.67
-31.286
13.71
77.696
158.611
249.274
342.435
433.293
518.414
597.384
669.628
732.753
785.418
827.429
859.62
883.278
896.388
891.852
860.514
795.08
694.759
568.209
430.775
299.363
187.448
102.147
44.382
11.472
-0.019
5.839
24.465
50.254
75.623
93.834
100.631
95.046
81.046
64.629
51.65
46.621
49.704
58.192
68.149
75.249
77.935
76.903
73.814
71.003
69.507
69.252
69.965
71.155
72.639
74.499
76.741
79.351
82.242
85.274
88.281
91.06
93.518
95.679
97.627
99.525
101.506
103.632
105.941
108.445
111.116
113.923
116.812
119.708
122.554
125.322
128.009
130.654
133.286
135.911
138.521
141.089
143.599
146.067
148.532
151.049
153.667
156.417
159.331
162.441
165.766
169.304
173.023
176.852
180.743
184.668
188.611
192.576
196.559
200.543
204.514
208.461
212.37
216.236
220.047
223.787
227.448
231.036
234.568
238.075
241.577
245.083
248.595
252.107
255.611
259.101
262.562
265.971
269.308
272.554
275.69
278.701
281.568
284.268
286.777
289.067
291.113
292.894
294.388
295.574
296.436
296.955
297.12
296.922
296.351
295.398
294.057
292.319
290.181
287.64
284.697
281.35
277.605
273.466
268.942
264.045
258.786
253.183
247.25
241.009
234.479
227.683
220.646
213.391
205.947
198.338
190.595
182.744
174.814
166.835
158.834
150.841
142.883
134.988
127.18
119.486
111.93
104.534
97.32
90.309
83.519
76.968
70.671
64.642
58.894
53.438
48.282
43.431
38.892
34.666
30.755
27.158
23.872
20.894
18.217
15.836
13.742
11.925
10.374
9.079
8.027
7.204
6.597
6.192
5.975
5.929
6.042
6.299
6.684
7.184
7.785
8.473
9.236
10.061
10.935
11.849
12.791
13.752
14.722
15.694
16.66
17.614
18.55
19.463
20.349
21.205
22.029
22.817
23.569
24.285
24.963
25.606
26.213
26.785
27.325
27.835
28.317
28.772
29.203
29.613
30.004
30.378
30.738
31.086
31.422
31.75
32.071
32.386
32.695
33.001
33.302
33.6
33.894
34.183
34.468
34.747
35.019
35.283
35.537
35.779
36.008
36.221
36.417
36.592
36.744
36.872
36.972
37.042
37.079
37.083
37.05
36.979
36.867
36.715
36.519
36.28
35.997
35.669
35.296
34.879
34.417
33.911
33.363
32.773
32.144
31.476
30.772
30.034
29.264
28.466
27.642
26.795
25.928
25.046
24.151
23.248
22.339
21.43
20.523
19.623
18.733
17.857
16.999
16.161
15.349
14.564
13.811
13.091
12.407
11.762
11.158
10.596
10.08
9.611
9.19
8.819
8.499
8.232
8.018
7.859
7.754
7.704
7.71
7.769
7.884
8.052
8.273
8.547
8.873
9.25
9.678
10.155
10.681
11.253
11.871
12.533
13.238
13.984
14.77
15.595
16.457
17.355
18.287
19.25
20.243
21.262
22.305
23.367
24.447
25.539
26.64
27.746
28.853
29.955
31.05
32.13
33.19
34.225
35.227
36.188
37.098
37.947
38.723
39.415
40.01
40.496
40.858
41.085
41.165
41.088
40.845
40.426
39.824
39.028
38.034
36.836
35.433
33.823
32.007
29.993
27.791
25.413
22.87
20.171
17.316
14.308
11.151
7.85
4.409
0.837
-2.85
-6.629
-10.463
-14.316
-18.16
-21.967
-25.716
-29.38
-32.923
-36.297
-39.454
-42.333
-44.863
-46.993
-48.687
-49.96
-50.9
-51.632
-52.297
-53.066
-54.121
-55.575
-57.459
-59.675
-61.938
-63.913
-65.269
-65.618
-64.565
-61.832
-57.307
-51.137
-43.813
-35.997
-28.423
-21.95
-17.549
-16.15
-18.491
-25.028
-35.562
-49.099
-64.183
-78.929
-91.73
-101.983
-109.526
-113.88
-112.7
-101.205
-73.431
-24.344
46.827
136.159
236.564
339.565
438.913
530.972
613.44
685.474
746.21
794.605
830.068
850.823
853.355
832.744
783.744
704.263
597.288
471.248
338.281
209.938
95.308
-0.244
-74.329
-125.108
-152.125
-156.348
-141.545
-115.514
-87.046
-64.71
-54.04
-55.41
-66.765
-83.26
-99.515
-112.33
-118.897
-119.337
-116.121
-111.669
-109.407
-110.861
-115.308
-121.411
-126.901
-130.445
-131.96
-131.832
-130.89
-129.622
-128.124
-126.5
-124.844
-123.35
-122.292
-121.751
-121.654
-121.875
-122.241
-122.596
-122.813
-122.777
-122.393
-121.627
-120.51
-119.069
-117.333
-115.314
-112.992
-110.369
-107.467
-104.303
-100.9
-97.286
-93.488
-89.534
-85.457
-81.256
-76.898
-72.358
-67.604
-62.628
-57.442
-52.068
-46.544
-40.906
-35.185
-29.406
-23.584
-17.726
-11.829
-5.892
0.092
6.115
12.16
18.207
24.239
30.248
36.233
42.203
48.171
54.152
60.158
66.197
72.27
78.37
84.486
90.605
96.704
102.767
108.776
114.716
120.57
126.321
131.947
137.424
142.728
147.833
152.712
157.34
161.693
165.75
169.489
172.894
175.949
178.639
180.951
182.871
184.387
185.488
186.165
186.41
186.218
185.584
184.509
182.992
181.038
178.653
175.845
172.624
169.004
164.998
160.623
155.898
150.843
145.479
139.83
133.921
127.778
121.426
114.895
108.211
101.403
94.499
87.528
80.518
73.495
66.488
59.521
52.621
45.812
39.118
32.559
26.158
19.933
13.903
8.082
2.485
-2.875
-7.988
-12.846
-17.442
-21.772
-25.833
-29.624
-33.146
-36.4
-39.392
-42.128
-44.614
-46.859
-48.874
-50.67
-52.258
-53.652
-54.867
-55.915
-56.813
-57.576
-58.22
-58.76
-59.213
-59.594
-59.919
-60.203
-60.461
-60.708
-60.957
-61.222
-61.514
-61.845
-62.226
-62.666
-63.175
-63.759
-64.425
-65.18
-66.027
-66.971
-68.014
-69.158
-70.404
-71.75
-73.196
-74.74
-76.379
-78.11
-79.928
-81.829
-83.806
-85.855
-87.968
-90.139
-92.361
-94.626
-96.927
-99.256
-101.605
-103.967
-106.333
-108.697
-111.051
-113.387
-115.698
-117.978
-120.22
-122.418
-124.566
-126.659
-128.692
-130.66
-132.56
-134.388
-136.14
-137.815
-139.41
-140.924
-142.355
-143.703
-144.967
-146.149
-147.248
-148.266
-149.204
-150.063
-150.848
-151.558
-152.198
-152.77
-153.276
-153.721
-154.107
-154.438
-154.717
-154.947
-155.132
-155.276
-155.382
-155.453
-155.492
-155.503
-155.487
-155.447
-155.386
-155.305
-155.206
-155.09
-154.958
-154.811
-154.649
-154.471
-154.277
-154.065
-153.835
-153.583
-153.308
-153.007
-152.677
-152.315
-151.918
-151.483
-151.007
-150.485
-149.915
-149.294
-148.617
-147.881
-147.082
-146.217
-145.281
-144.273
-143.189
-142.027
-140.784
-139.459
-138.05
-136.556
-134.978
-133.315
-131.568
-129.738
-127.827
-125.837
-123.772
-121.637
-119.437
-117.178
-114.866
-112.509
-110.116
-107.694
-105.252
-102.798
-100.343
-97.896
-95.468
-93.069
-90.713
-88.413
-86.185
-84.046
-82.013
-80.102
-78.332
-76.719
-75.28
-74.028
-72.977
-72.137
-71.519
-71.134
-70.993
-71.101
-71.465
-72.084
-72.96
-74.089
-75.468
-77.086
-78.929
-80.983
-83.237
-85.688
-88.338
-91.191
-94.241
-97.483
-100.912
-104.522
-108.306
-112.253
-116.327
-120.489
-124.699
-128.917
-133.114
-137.263
-141.31
-145.176
-148.793
-152.111
-155.122
-157.867
-160.362
-162.6
-164.618
-166.503
-168.342
-170.209
-172.074
-173.766
-175.139
-176.105
-176.559
-176.39
-175.506
-173.808
-171.343
-168.394
-165.244
-162.122
-159.31
-157.096
-156.069
-157.109
-160.834
-167.373
-175.928
-185.211
-194.394
-203.218
-212.624
-223.482
-235.514
-247.809
-257.708
-262.258
-258.663
-242.771
-210.612
-158.233
-82.773
14.551
128.62
250.625
369.737
476.532
564.544
631.663
679.086
708.498
721.018
714.358
683.896
626.4
540.299
430.113
306.13
179.989
64.719
-31.07
-104.516
-155.575
-188.271
-205.929
-210.537
-205.266
-192.642
-177.191
-164.189
-155.845
-152.566
-151.869
-149.812
-144.979
-137.589
-129.334
-122.836
-118.942
-117.326
-117.248
-117.494
-117.582
-117.595
-117.493
-117.293
-116.905
-116.091
-114.838
-113.303
-111.609
-109.878
-108.236
-106.76
-105.57
-104.826
-104.518
-104.522
-104.673
-104.762
-104.629
-104.177
-103.293
-101.866
-99.852
-97.252
-94.109
-90.504
-86.5
-82.147
-77.498
-72.608
-67.534
-62.333
-57.06
-51.761
-46.469
-41.208
-35.993
-30.831
-25.721
-20.659
-15.631
-10.617
-5.603
-0.579
4.464
9.532
14.634
19.782
24.987
30.258
35.603
41.026
46.53
52.118
57.787
63.536
69.356
75.24
81.18
87.167
93.194
99.252
105.33
111.416
117.496
123.558
129.584
135.558
141.459
147.268
152.963
158.523
163.926
169.15
174.172
178.97
183.522
187.806
191.8
195.485
198.841
201.849
204.491
206.753
208.619
210.077
211.115
211.725
211.9
211.634
210.925
209.771
208.172
206.134
203.659
200.756
197.433
193.702
189.577
185.073
180.206
174.997
169.465
163.633
157.524
151.162
144.573
137.783
130.819
123.708
116.476
109.152
101.763
94.336
86.897
79.472
72.087
64.765
57.53
50.405
43.41
36.565
29.888
23.397
17.107
11.032
5.184
-0.425
-5.787
-10.894
-15.74
-20.32
-24.632
-28.675
-32.448
-35.954
-39.196
-42.177
-44.905
-47.385
-49.625
-51.635
-53.424
-55.001
-56.379
-57.568
-58.581
-59.429
-60.125
-60.682
-61.113
-61.429
-61.644
-61.77
-61.819
-61.803
-61.733
-61.62
-61.476
-61.31
-61.132
-60.951
-60.775
-60.612
-60.469
-60.352
-60.268
-60.22
-60.214
-60.252
-60.339
-60.475
-60.664
-60.905
-61.2
-61.549
-61.951
-62.405
-62.91
-63.464
-64.066
-64.712
-65.4
-66.127
-66.89
-67.685
-68.509
-69.358
-70.226
-71.112
-72.01
-72.915
-73.825
-74.734
-75.639
-76.534
-77.417
-78.283
-79.129
-79.95
-80.743
-81.505
-82.233
-82.924
-83.576
-84.185
-84.75
-85.269
-85.74
-86.16
-86.53
-86.848
-87.113
-87.325
-87.483
-87.587
-87.638
-87.637
-87.583
-87.479
-87.326
-87.126
-86.88
-86.59
-86.26
-85.891
-85.486
-85.048
-84.579
-84.083
-83.563
-83.021
-82.461
-81.887
-81.3
-80.703
-80.101
-79.494
-78.886
-78.279
-77.676
-77.077
-76.487
-75.904
-75.332
-74.771
-74.222
-73.684
-73.157
-72.64
-72.133
-71.633
-71.139
-70.647
-70.155
-69.66
-69.159
-68.647
-68.121
-67.576
-67.008
-66.411
-65.78
-65.111
-64.396
-63.632
-62.811
-61.929
-60.981
-59.96
-58.863
-57.683
-56.415
-55.057
-53.602
-52.047
-50.39
-48.626
-46.755
-44.774
-42.685
-40.486
-38.179
-35.767
-33.252
-30.638
-27.93
-25.132
-22.25
-19.294
-16.269
-13.186
-10.054
-6.884
-3.69
-0.487
2.709
5.88
9.009
12.076
15.059
17.939
20.694
23.305
25.756
28.026
30.1
31.958
33.584
34.962
36.08
36.925
37.49
37.767
37.755
37.456
36.875
36.016
34.883
33.471
31.776
29.796
27.532
24.985
22.164
19.08
15.75
12.203
8.463
4.558
0.522
-3.622
-7.842
-12.096
-16.346
-20.526
-24.55
-28.357
-31.901
-35.17
-38.216
-41.098
-43.875
-46.661
-49.594
-52.763
-56.205
-59.83
-63.383
-66.602
-69.254
-71.079
-71.824
-71.312
-69.454
-66.384
-62.524
-58.376
-54.462
-51.378
-49.73
-50.055
-52.869
-58.49
-66.867
-77.826
-90.786
-104.431
-117.247
-127.628
-134.376
-137.681
-137.896
-134.199
-124.26
-103.28
-66.133
-10.708
61.843
146.639
236.92
327.995
416.905
501.771
581.332
652.731
713.088
761.615
798.645
825.308
841.065
840.613
816.205
760.688
670.842
551.955
416.076
278.131
152.863
49.833
-26.723
-75.936
-100.109
-102.702
-88.771
-65.8
-41.48
-22.823
-14.106
-15.186
-23.391
-34.219
-42.893
-46.737
-44.941
-38.874
-31.823
-26.89
-25.722
-28.336
-33.157
-37.899
-41.516
-43.824
-44.619
-44.512
-43.325
-40.467
-36.971
-33.506
-31.04
-30.946
-32.412
-34.612
-36.877
-38.082
-38.69
-39.183
-39.516
-39.932
-40.024
-39.389
-38.077
-36.064
-33.424
-30.285
-26.661
-22.581
-18.126
-13.352
-8.305
-3.041
2.387
7.917
13.478
19.017
24.508
29.929
35.27
40.529
45.706
50.809
55.855
60.855
65.816
70.744
75.643
80.52
85.384
90.246
95.113
99.994
104.894
109.814
114.758
119.723
124.707
129.705
134.71
139.715
144.715
149.703
154.674
159.618
164.528
169.392
174.2
178.939
183.595
188.151
192.59
196.895
201.049
205.031
208.823
212.406
215.76
218.866
221.705
224.257
226.505
228.431
230.018
231.25
232.112
232.592
232.676
232.355
231.619
230.462
228.878
226.865
224.419
221.543
218.238
214.508
210.361
205.803
200.846
195.502
189.784
183.709
177.296
170.562
163.531
156.223
148.663
140.876
132.886
124.72
116.405
107.968
99.436
90.837
82.199
73.548
64.912
56.316
47.786
39.346
31.02
22.831
14.798
6.943
-0.716
-8.163
-15.382
-22.359
-29.082
-35.54
-41.724
-47.628
-53.244
-58.571
-63.604
-68.345
-72.793
-76.95
-80.822
-84.412
-87.728
-90.776
-93.566
-96.106
-98.407
-100.481
-102.338
-103.991
-105.453
-106.736
-107.852
-108.815
-109.638
-110.333
-110.913
-111.388
-111.772
-112.074
-112.305
-112.476
-112.595
-112.671
-112.712
-112.726
-112.718
-112.694
-112.66
-112.62
-112.577
-112.535
-112.496
-112.46
-112.431
-112.408
-112.39
-112.379
-112.373
-112.371
-112.372
-112.374
-112.376
-112.375
-112.371
-112.36
-112.342
-112.315
-112.277
-112.227
-112.165
-112.088
-111.997
-111.891
-111.77
-111.634
-111.484
-111.319
-111.141
-110.95
-110.747
-110.534
-110.311
-110.08
-109.843
-109.6
-109.353
-109.103
-108.852
-108.602
-108.353
-108.106
-107.863
-107.624
-107.39
-107.161
-106.937
-106.718
-106.504
-106.293
-106.086
-105.88
-105.674
-105.466
-105.254
-105.036
-104.809
-104.572
-104.32
-104.052
-103.765
-103.455
-103.12
-102.758
-102.365
-101.938
-101.476
-100.975
-100.432
-99.846
-99.214
-98.534
-97.803
-97.02
-96.182
-95.288
-94.337
-93.327
-92.256
-91.124
-89.929
-88.67
-87.346
-85.956
-84.5
-82.977
-81.387
-79.727
-77.998
-76.199
-74.328
-72.383
-70.364
-68.269
-66.096
-63.842
-61.506
-59.085
-56.578
-53.981
-51.293
-48.512
-45.634
-42.659
-39.584
-36.407
-33.125
-29.737
-26.241
-22.637
-18.922
-15.096
-11.159
-7.112
-2.955
1.311
5.684
10.163
14.743
19.422
24.195
29.056
34
39.02
44.106
49.251
54.444
59.674
64.929
70.199
75.469
80.726
85.955
91.143
96.273
101.33
106.296
111.153
115.879
120.455
124.857
129.065
133.055
136.805
140.292
143.495
146.397
148.981
151.229
153.127
154.658
155.809
156.57
156.933
156.893
156.45
155.602
154.355
152.72
150.71
148.336
145.607
142.522
139.08
135.288
131.154
126.69
121.91
116.829
111.465
105.849
100.016
94.008
87.868
81.627
75.326
69.003
62.721
56.578
50.652
44.985
39.593
34.434
29.47
24.702
20.073
15.459
10.786
6.022
1.225
-3.357
-7.495
-11.057
-13.871
-15.758
-16.64
-16.452
-15.264
-13.439
-11.409
-9.533
-8.281
-8.153
-9.534
-12.853
-18.53
-26.721
-37.394
-50.531
-65.396
-80.364
-93.944
-104.489
-111.234
-115.247
-116.771
-114.294
-104.221
-80.122
-36.752
26.967
108.191
199.928
294.553
387.124
474.435
554.913
627.241
689.115
739.242
777.644
804.866
820.546
820.879
798.884
747.085
661.56
545.567
409.492
268.284
137.063
26.767
-56.625
-111.645
-140.462
-146.499
-135.034
-113.508
-89.114
-69.185
-58.792
-58.441
-66.784
-79.639
-91.868
-100.665
-103.805
-101.833
-97.645
-93.696
-92.822
-95.994
-102.086
-109.535
-116.201
-120.872
-123.443
-124.262
-124.094
-123.427
-122.44
-121.323
-120.223
-119.365
-119.044
-119.343
-120.186
-121.446
-122.918
-124.401
-125.717
-126.649
-127.006
-126.69
-125.674
-123.978
-121.66
-118.77
-115.356
-111.49
-107.245
-102.683
-97.858
-92.817
-87.605
-82.277
-76.895
-71.518
-66.189
-60.939
-55.786
-50.741
-45.809
-40.992
-36.283
-31.672
-27.15
-22.711
-18.349
-14.062
-9.842
-5.68
-1.568
2.503
6.541
10.551
14.536
18.498
22.438
26.354
30.244
34.103
37.927
41.714
45.459
49.159
52.807
56.397
59.922
63.372
66.738
70.008
73.169
76.207
79.108
81.857
84.439
86.836
89.033
91.014
92.761
94.259
95.492
96.444
97.101
97.449
97.475
97.166
96.513
95.507
94.14
92.405
90.299
87.82
84.966
81.74
78.143
74.182
69.862
65.194
60.187
54.854
49.21
43.272
37.056
30.584
23.875
16.954
9.843
2.567
-4.849
-12.377
-19.992
-27.667
-35.373
-43.085
-50.774
-58.414
-65.98
-73.444
-80.783
-87.973
-94.99
-101.813
-108.421
-114.796
-120.921
-126.778
-132.354
-137.636
-142.613
-147.276
-151.616
-155.629
-159.31
-162.657
-165.669
-168.348
-170.695
-172.717
-174.418
-175.806
-176.889
-177.676
-178.18
-178.411
-178.382
-178.107
-177.599
-176.875
-175.948
-174.834
-173.549
-172.109
-170.53
-168.828
-167.017
-165.115
-163.135
-161.093
-159.003
-156.878
-154.731
-152.576
-150.423
-148.284
-146.168
-144.086
-142.044
-140.051
-138.114
-136.238
-134.427
-132.687
-131.019
-129.427
-127.911
-126.472
-125.111
-123.827
-122.617
-121.482
-120.416
-119.419
-118.485
-117.612
-116.793
-116.026
-115.304
-114.621
-113.973
-113.353
-112.756
-112.174
-111.602
-111.034
-110.464
-109.885
-109.291
-108.678
-108.039
-107.37
-106.665
-105.921
-105.132
-104.296
-103.409
-102.468
-101.471
-100.416
-99.301
-98.125
-96.888
-95.589
-94.229
-92.808
-91.328
-89.789
-88.195
-86.547
-84.849
-83.104
-81.316
-79.488
-77.625
-75.732
-73.813
-71.874
-69.92
-67.957
-65.989
-64.023
-62.065
-60.119
-58.192
-56.288
-54.414
-52.574
-50.773
-49.016
-47.307
-45.651
-44.051
-42.512
-41.036
-39.626
-38.285
-37.016
-35.82
-34.699
-33.653
-32.684
-31.791
-30.975
-30.233
-29.566
-28.971
-28.448
-27.992
-27.603
-27.276
-27.009
-26.798
-26.639
-26.528
-26.46
-26.431
-26.436
-26.471
-26.53
-26.607
-26.699
-26.8
-26.903
-27.004
-27.096
-27.174
-27.231
-27.263
-27.263
-27.225
-27.144
-27.013
-26.829
-26.585
-26.276
-25.899
-25.448
-24.92
-24.31
-23.615
-22.83
-21.952
-20.978
-19.906
-18.732
-17.455
-16.073
-14.585
-12.989
-11.285
-9.473
-7.554
-5.527
-3.395
-1.158
1.18
3.616
6.146
8.766
11.47
14.253
17.108
20.028
23.005
26.031
29.098
32.197
35.318
38.453
41.589
44.715
47.819
50.886
53.899
56.842
59.698
62.449
65.077
67.565
69.894
72.052
74.025
75.799
77.361
78.699
79.8
80.656
81.261
81.61
81.702
81.535
81.115
80.449
79.551
78.429
77.09
75.53
73.748
71.746
69.526
67.098
64.47
61.651
58.655
55.507
52.236
48.881
45.475
42.047
38.63
35.257
31.983
28.897
26.065
23.523
21.281
19.298
17.529
15.961
14.529
13.106
11.621
10.04
8.403
6.927
5.834
5.257
5.364
6.32
8.167
10.928
14.556
18.711
22.925
26.856
30.124
32.281
33.099
32.102
28.443
22.032
13.285
2.864
-7.384
-16.265
-23.835
-29.911
-35.454
-41.039
-45.312
-46.368
-40.153
-21.374
14.623
71.478
149.326
244.801
351.493
460.872
564.804
656.274
731.212
788.979
831.526
862.234
882.818
891.783
883.521
850.546
787.38
692.86
573.309
440.202
306.798
186.032
85.276
7.842
-45.584
-77.582
-89.524
-84.21
-67.458
-44.863
-24.178
-11.627
-8.215
-13.182
-22.706
-31.705
-38.179
-40.806
-39.609
-36.876
-33.863
-31.916
-32.651
-35.72
-40.642
-46.714
-51.887
-55.235
-56.312
-54.75
-51.986
-49.072
-46.692
-45.802
-45.963
-46.796
-48.231
-49.804
-51.593
-53.655
-55.733
-57.706
-59.397
-60.62
-61.326
-61.485
-61.072
-60.113
-58.653
-56.75
-54.458
-51.821
-48.876
-45.654
-42.209
-38.602
-34.877
-31.066
-27.183
-23.216
-19.179
-15.117
-11.052
-6.997
-2.955
1.096
5.157
9.217
13.275
17.343
21.435
25.572
29.763
34.001
38.279
42.588
46.931
51.324
55.777
60.29
64.865
69.497
74.186
78.937
83.749
88.606
93.496
98.404
103.317
108.229
113.129
118.002
122.832
127.599
132.282
136.864
141.325
145.641
149.791
153.751
157.5
161.021
164.296
167.306
170.033
172.461
174.572
176.353
177.79
178.87
179.581
179.913
179.859
179.413
178.57
177.33
175.69
173.653
171.223
168.404
165.203
161.63
157.694
153.409
148.789
143.849
138.606
133.08
127.291
121.259
115.006
108.554
101.928
95.15
88.243
81.233
74.143
66.996
59.816
52.626
45.448
38.303
31.215
24.201
17.282
10.475
3.798
-2.735
-9.108
-15.308
-21.324
-27.145
-32.762
-38.168
-43.355
-48.319
-53.057
-57.566
-61.846
-65.896
-69.718
-73.315
-76.691
-79.851
-82.8
-85.545
-88.094
-90.453
-92.633
-94.641
-96.488
-98.183
-99.736
-101.158
-102.459
-103.649
-104.739
-105.739
-106.658
-107.507
-108.295
-109.03
-109.722
-110.38
-111.01
-111.62
-112.217
-112.808
-113.398
-113.992
-114.595
-115.212
-115.846
-116.5
-117.176
-117.877
-118.604
-119.359
-120.142
-120.953
-121.792
-122.659
-123.553
-124.474
-125.418
-126.387
-127.376
-128.385
-129.411
-130.452
-131.506
-132.57
-133.643
-134.721
-135.802
-136.884
-137.964
-139.04
-140.109
-141.17
-142.219
-143.255
-144.276
-145.28
-146.264
-147.227
-148.167
-149.082
-149.971
-150.831
-151.662
-152.462
-153.23
-153.964
-154.663
-155.325
-155.951
-156.537
-157.085
-157.592
-158.058
-158.482
-158.863
-159.202
-159.497
-159.748
-159.955
-160.117
-160.235
-160.309
-160.338
-160.324
-160.266
-160.165
-160.021
-159.836
-159.61
-159.345
-159.041
-158.7
-158.323
-157.911
-157.465
-156.988
-156.48
-155.943
-155.379
-154.789
-154.174
-153.538
-152.88
-152.202
-151.506
-150.792
-150.062
-149.317
-148.557
-147.782
-146.995
-146.193
-145.378
-144.55
-143.707
-142.849
-141.975
-141.083
-140.172
-139.239
-138.283
-137.3
-136.289
-135.247
-134.17
-133.057
-131.904
-130.709
-129.469
-128.181
-126.842
-125.45
-124.002
-122.495
-120.926
-119.295
-117.599
-115.837
-114.008
-112.112
-110.147
-108.114
-106.015
-103.849
-101.619
-99.327
-96.975
-94.568
-92.109
-89.605
-87.061
-84.483
-81.879
-79.258
-76.627
-73.996
-71.374
-68.77
-66.195
-63.661
-61.177
-58.756
-56.409
-54.152
-51.998
-49.965
-48.068
-46.325
-44.752
-43.369
-42.191
-41.237
-40.518
-40.048
-39.839
-39.9
-40.243
-40.878
-41.811
-43.045
-44.582
-46.42
-48.555
-50.978
-53.675
-56.631
-59.829
-63.258
-66.913
-70.792
-74.887
-79.194
-83.702
-88.399
-93.268
-98.289
-103.427
-108.655
-113.942
-119.252
-124.56
-129.832
-135.025
-140.099
-144.986
-149.595
-153.866
-157.759
-161.266
-164.455
-167.392
-170.138
-172.819
-175.588
-178.54
-181.715
-185.015
-188.165
-190.899
-192.997
-194.19
-194.209
-192.856
-190.01
-185.79
-180.618
-174.976
-169.362
-164.39
-160.715
-158.989
-159.886
-163.889
-171.155
-181.726
-195.146
-210.08
-224.74
-237.054
-245.616
-250.657
-252.915
-252.223
-245.844
-227.879
-191.092
-130.053
-44.274
61.851
179.735
299.228
412.507
513.503
598.67
667.315
718.517
751.435
765.312
756.898
722.822
661.648
573.08
462.334
339.19
214.171
99.486
3.394
-70.791
-121.857
-152.579
-165.743
-163.805
-150.895
-131.087
-109.661
-91.389
-78.921
-72.923
-71.967
-74.235
-77.508
-79.928
-79.999
-76.511
-70.049
-62.156
-55.097
-50.874
-49.685
-50.547
-51.789
-51.994
-50.742
-48.336
-45.398
-42.369
-39.39
-36.502
-33.749
-31.282
-29.334
-27.967
-27.089
-26.552
-26.142
-25.652
-24.936
-23.839
-22.207
-19.974
-17.132
-13.7
-9.745
-5.336
-0.518
4.646
10.094
15.78
21.646
27.639
33.713
39.812
45.895
51.938
57.923
63.843
69.702
75.502
81.26
86.994
92.721
98.45
104.194
109.959
115.754
121.594
127.49
133.453
139.491
145.611
151.816
158.111
164.493
170.959
177.503
184.117
190.792
197.522
204.296
211.105
217.937
224.78
231.618
238.435
245.214
251.934
258.574
265.109
271.517
277.771
283.848
289.721
295.363
300.748
305.85
310.643
315.102
319.201
322.918
326.229
329.113
331.55
333.521
335.011
336.004
336.489
336.454
335.893
334.8
333.171
331.006
328.306
325.075
321.321
317.053
312.281
307.021
301.29
295.106
288.49
281.467
274.06
266.298
258.208
249.821
241.166
232.277
223.184
213.922
204.524
195.023
185.453
175.846
166.236
156.655
147.134
137.702
128.391
119.227
110.237
101.447
92.88
84.558
76.502
68.731
61.26
54.105
47.278
40.791
34.653
28.87
23.448
18.389
13.696
9.367
5.4
1.793
-1.461
-4.369
-6.939
-9.179
-11.101
-12.717
-14.038
-15.078
-15.852
-16.373
-16.657
-16.719
-16.576
-16.243
-15.736
-15.071
-14.264
-13.331
-12.287
-11.148
-9.927
-8.639
-7.298
-5.917
-4.507
-3.08
-1.648
-0.22
1.194
2.587
3.951
5.278
6.564
7.803
8.99
10.124
11.201
12.219
13.178
14.076
14.916
15.697
16.422
17.093
17.712
18.284
18.811
19.299
19.751
20.173
20.569
20.946
21.307
21.659
22.006
22.356
22.712
23.08
23.464
23.87
24.303
24.765
25.26
25.793
26.365
26.979
27.637
28.34
29.089
29.883
30.724
31.609
32.538
33.507
34.515
35.558
36.632
37.733
38.856
39.997
41.149
42.306
43.463
44.613
45.748
46.862
47.947
48.997
50.004
50.96
51.859
52.694
53.458
54.143
54.744
55.254
55.668
55.981
56.187
56.282
56.262
56.124
55.865
55.481
54.973
54.338
53.575
52.684
51.666
50.522
49.252
47.859
46.346
44.713
42.966
41.107
39.14
37.069
34.899
32.635
30.28
27.84
25.321
22.728
20.066
17.341
14.558
11.722
8.84
5.916
2.957
-0.034
-3.05
-6.087
-9.14
-12.203
-15.272
-18.342
-21.409
-24.469
-27.516
-30.546
-33.556
-36.541
-39.496
-42.417
-45.299
-48.138
-50.929
-53.668
-56.349
-58.968
-61.52
-64.002
-66.407
-68.731
-70.97
-73.12
-75.175
-77.131
-78.984
-80.729
-82.361
-83.875
-85.269
-86.537
-87.676
-88.682
-89.552
-90.282
-90.869
-91.312
-91.608
-91.756
-91.755
-91.605
-91.308
-90.863
-90.273
-89.54
-88.669
-87.663
-86.527
-85.268
-83.891
-82.405
-80.818
-79.139
-77.378
-75.543
-73.647
-71.7
-69.718
-67.717
-65.716
-63.734
-61.791
-59.907
-58.104
-56.403
-54.822
-53.38
-52.091
-50.971
-50.036
-49.305
-48.794
-48.518
-48.486
-48.7
-49.16
-49.861
-50.8
-51.98
-53.397
-55.046
-56.928
-59.038
-61.39
-64.011
-66.891
-69.985
-73.251
-76.636
-80.135
-83.804
-87.645
-91.595
-95.664
-99.905
-104.387
-109.22
-114.333
-119.465
-124.468
-129.298
-133.893
-138.188
-142.039
-145.218
-147.765
-149.956
-151.959
-153.812
-155.432
-156.678
-157.559
-158.194
-158.527
-158.372
-157.584
-156.154
-154.342
-152.454
-150.654
-149.053
-147.807
-147.406
-148.645
-152.03
-157.564
-164.428
-171.301
-177.665
-183.734
-190.395
-198.755
-208.446
-218.108
-226.165
-230.298
-227.997
-216.169
-190.232
-146.47
-84.119
-5.472
83.657
176.492
268.637
357.405
441.212
518.749
587.053
643.307
687.031
718.961
740.409
750.936
745.116
715.17
654.476
560.528
439.414
303.691
168.062
46.713
-51.542
-123.079
-167.31
-186.784
-185.265
-168.177
-143.36
-118.754
-101.163
-94.168
-97.011
-106.672
-118.666
-129.12
-135.993
-137.784
-135.166
-130.012
-124.211
-120.533
-119.928
-121.737
-124.99
-127.867
-129.459
-129.892
-129.354
-128.369
-127.327
-126.243
-125.143
-124.092
-123.123
-122.345
-121.908
-121.809
-121.935
-122.148
-122.257
-122.068
-121.464
-120.329
-118.537
-116.051
-112.877
-109.036
-104.609
-99.666
-94.26
-88.458
-82.324
-75.91
-69.28
-62.491
-55.595
-48.651
-41.704
-34.783
-27.911
-21.101
-14.353
-7.669
-1.039
5.551
12.112
18.65
25.172
31.68
38.18
44.681
51.191
57.715
64.261
70.831
77.428
84.051
90.699
97.368
104.051
110.74
117.426
124.102
130.759
137.388
143.98
150.52
156.996
163.395
169.7
175.894
181.956
187.868
193.607
199.152
204.481
209.572
214.402
218.949
223.189
227.102
230.667
233.863
236.67
239.07
241.046
242.583
243.665
244.282
244.422
244.078
243.242
241.912
240.085
237.762
234.945
231.64
227.854
223.598
218.882
213.721
208.132
202.134
195.747
188.994
181.9
174.49
166.792
158.834
150.647
142.259
133.702
125.007
116.206
107.329
98.408
89.473
80.555
71.684
62.887
54.192
45.626
37.213
28.978
20.942
13.124
5.545
-1.779
-8.833
-15.604
-22.081
-28.253
-34.114
-39.658
-44.881
-49.781
-54.358
-58.613
-62.55
-66.172
-69.486
-72.499
-75.22
-77.657
-79.821
-81.724
-83.376
-84.792
-85.983
-86.963
-87.745
-88.344
-88.772
-89.044
-89.173
-89.172
-89.055
-88.834
-88.521
-88.128
-87.666
-87.146
-86.578
-85.971
-85.334
-84.675
-84.002
-83.322
-82.641
-81.964
-81.298
-80.645
-80.011
-79.4
-78.813
-78.255
-77.728
-77.234
-76.774
-76.351
-75.966
-75.62
-75.315
-75.051
-74.829
-74.65
-74.515
-74.425
-74.379
-74.38
-74.426
-74.52
-74.661
-74.851
-75.088
-75.375
-75.711
-76.097
-76.533
-77.018
-77.554
-78.139
-78.773
-79.456
-80.186
-80.962
-81.784
-82.649
-83.555
-84.5
-85.482
-86.497
-87.542
-88.615
-89.71
-90.825
-91.956
-93.097
-94.244
-95.393
-96.538
-97.676
-98.8
-99.905
-100.987
-102.04
-103.059
-104.039
-104.975
-105.862
-106.697
-107.474
-108.189
-108.84
-109.422
-109.933
-110.369
-110.73
-111.014
-111.219
-111.345
-111.392
-111.36
-111.251
-111.065
-110.805
-110.472
-110.07
-109.601
-109.07
-108.479
-107.835
-107.14
-106.401
-105.622
-104.809
-103.967
-103.104
-102.224
-101.335
-100.443
-99.554
-98.675
-97.811
-96.971
-96.16
-95.383
-94.647
-93.958
-93.32
-92.738
-92.217
-91.761
-91.374
-91.058
-90.817
-90.653
-90.567
-90.562
-90.638
-90.797
-91.037
-91.358
-91.76
-92.241
-92.799
-93.432
-94.136
-94.91
-95.747
-96.645
-97.598
-98.601
-99.647
-100.73
-101.844
-102.98
-104.132
-105.292
-106.451
-107.602
-108.737
-109.847
-110.924
-111.96
-112.947
-113.876
-114.74
-115.53
-116.239
-116.858
-117.381
-117.8
-118.107
-118.298
-118.366
-118.304
-118.109
-117.774
-117.297
-116.674
-115.901
-114.978
-113.903
-112.676
-111.298
-109.771
-108.098
-106.283
-104.331
-102.247
-100.038
-97.711
-95.274
-92.737
-90.109
-87.401
-84.624
-81.791
-78.918
-76.019
-73.114
-70.221
-67.36
-64.55
-61.815
-59.177
-56.655
-54.271
-52.042
-49.987
-48.126
-46.476
-45.056
-43.882
-42.967
-42.322
-41.956
-41.875
-42.082
-42.573
-43.342
-44.384
-45.696
-47.282
-49.147
-51.291
-53.713
-56.409
-59.367
-62.576
-66.019
-69.664
-73.487
-77.458
-81.544
-85.718
-89.949
-94.196
-98.418
-102.548
-106.498
-110.205
-113.632
-116.772
-119.684
-122.427
-125.043
-127.636
-130.336
-133.22
-136.314
-139.533
-142.616
-145.314
-147.465
-148.866
-149.314
-148.696
-146.908
-144.021
-140.429
-136.564
-132.784
-129.568
-127.385
-126.607
-127.802
-131.436
-137.557
-146.189
-156.959
-168.592
-179.725
-188.978
-195.308
-199.259
-201.391
-200.643
-193.977
-175.435
-138.89
-81.842
-5.858
83.136
177.474
272.016
363.708
450.887
532.449
605.407
666.724
715.532
751.96
777.024
790.293
786.495
758.219
698.916
605.823
484.831
348.436
211.656
89.311
-9.365
-80.725
-124.486
-143.708
-142.303
-125.325
-100.113
-74.208
-54.545
-45.573
-47.381
-57.071
-69.772
-80.396
-85.881
-85.308
-80.198
-73.741
-68.928
-67.522
-69.481
-73.258
-76.862
-79.103
-79.674
-78.862
-77.408
-75.731
-73.983
-72.323
-70.803
-69.541
-68.733
-68.523
-68.92
-69.836
-71.111
-72.531
-73.893
-75.001
-75.679
-75.774
-75.2
-73.945
-72.023
-69.48
-66.375
-62.76
-58.694
-54.244
-49.461
-44.392
-39.091
-33.607
-27.997
-22.323
-16.627
-10.94
-5.281
0.343
5.933
11.49
17.027
22.56
28.102
33.663
39.251
44.871
50.529
56.236
62
67.831
73.735
79.715
85.773
91.908
98.118
104.395
110.732
117.119
123.547
130.004
136.482
142.97
149.455
155.923
162.359
168.749
175.074
181.314
187.45
193.46
199.321
205.011
210.506
215.783
220.819
225.591
230.075
234.25
238.095
241.587
244.709
247.442
249.768
251.673
253.144
254.168
254.737
254.843
254.481
253.648
252.344
250.569
248.329
245.629
242.477
238.884
234.862
230.428
225.597
220.39
214.826
208.93
202.726
196.24
189.499
182.531
175.367
168.034
160.565
152.989
145.338
137.641
129.93
122.233
114.58
107
99.519
92.163
84.957
77.925
71.087
64.464
58.074
51.934
46.059
40.46
35.151
30.138
25.431
21.033
16.949
13.18
9.725
6.583
3.75
1.22
-1.013
-2.957
-4.623
-6.02
-7.16
-8.057
-8.724
-9.175
-9.424
-9.489
-9.383
-9.123
-8.726
-8.205
-7.579
-6.86
-6.066
-5.211
-4.308
-3.372
-2.415
-1.45
-0.488
0.459
1.383
2.274
3.123
3.923
4.667
5.351
5.967
6.514
6.986
7.382
7.7
7.938
8.096
8.175
8.174
8.096
7.941
7.713
7.413
7.045
6.612
6.117
5.563
4.955
4.296
3.59
2.841
2.052
1.228
0.371
-0.513
-1.423
-2.355
-3.306
-4.272
-5.252
-6.242
-7.241
-8.245
-9.254
-10.265
-11.277
-12.289
-13.298
-14.305
-15.308
-16.306
-17.3
-18.288
-19.27
-20.246
-21.217
-22.182
-23.141
-24.094
-25.043
-25.986
-26.925
-27.86
-28.79
-29.717
-30.64
-31.56
-32.476
-33.39
-34.301
-35.208
-36.113
-37.016
-37.915
-38.811
-39.704
-40.593
-41.479
-42.361
-43.238
-44.111
-44.98
-45.843
-46.7
-47.552
-48.397
-49.236
-50.067
-50.89
-51.706
-52.512
-53.31
-54.098
-54.877
-55.646
-56.406
-57.156
-57.896
-58.628
-59.35
-60.065
-60.772
-61.472
-62.167
-62.857
-63.544
-64.228
-64.912
-65.597
-66.285
-66.976
-67.673
-68.376
-69.089
-69.812
-70.546
-71.294
-72.057
-72.836
-73.632
-74.447
-75.283
-76.139
-77.017
-77.917
-78.839
-79.784
-80.751
-81.739
-82.748
-83.776
-84.821
-85.881
-86.954
-88.036
-89.124
-90.214
-91.302
-92.382
-93.449
-94.498
-95.522
-96.515
-97.472
-98.386
-99.25
-100.057
-100.801
-101.475
-102.071
-102.583
-103.003
-103.324
-103.539
-103.64
-103.622
-103.479
-103.203
-102.791
-102.237
-101.536
-100.685
-99.68
-98.518
-97.198
-95.717
-94.077
-92.278
-90.321
-88.21
-85.948
-83.54
-80.992
-78.31
-75.502
-72.575
-69.539
-66.402
-63.177
-59.873
-56.502
-53.08
-49.622
-46.145
-42.669
-39.212
-35.797
-32.444
-29.176
-26.015
-22.98
-20.09
-17.362
-14.814
-12.463
-10.327
-8.423
-6.764
-5.36
-4.22
-3.351
-2.758
-2.439
-2.39
-2.603
-3.071
-3.795
-4.785
-6.046
-7.58
-9.386
-11.459
-13.791
-16.374
-19.192
-22.216
-25.412
-28.743
-32.172
-35.672
-39.21
-42.748
-46.226
-49.548
-52.643
-55.471
-58.023
-60.339
-62.466
-64.417
-66.266
-68.157
-70.177
-72.374
-74.697
-76.911
-78.788
-80.186
-80.92
-80.811
-79.767
-77.696
-74.648
-70.975
-67.096
-63.38
-60.304
-58.309
-57.729
-59.048
-62.709
-68.844
-77.466
-88.285
-100.297
-112.225
-122.723
-130.674
-135.896
-138.562
-138.23
-132.519
-116.882
-85.945
-35.37
35.219
122.148
219.259
319.582
418.08
511.397
597.133
673.326
737.866
790.011
829.709
856.922
870.522
865.545
835.63
775.616
683.762
566.151
434.431
302.369
183.805
87.491
17.377
-25.56
-43.904
-41.252
-22.612
4.522
32.612
54.535
65.429
64.826
55.195
41.506
29.541
23.229
24.266
31.245
40.361
47.697
50.675
49.103
44.799
40.14
36.656
34.749
34.063
33.956
34.157
34.607
35.25
36.079
36.952
37.701
38.202
38.309
37.99
37.351
36.534
35.735
35.156
34.93
35.177
36.022
37.508
39.635
42.377
45.66
49.414
53.586
58.114
62.937
68.005
73.258
78.642
84.106
89.594
95.061
100.477
105.818
111.071
116.231
121.294
126.266
131.16
135.98
140.73
145.414
150.032
154.586
159.085
163.531
167.932
172.291
176.609
180.889
185.129
189.328
193.481
197.582
201.623
205.597
209.498
213.319
217.055
220.696
224.233
227.658
230.96
234.127
237.146
240.002
242.681
245.165
247.441
249.49
251.296
252.843
254.114
255.092
255.762
256.107
256.114
255.768
255.055
253.965
252.487
250.61
248.329
245.636
242.527
239
235.055
230.692
225.915
220.728
215.14
209.158
202.793
196.058
188.969
181.54
173.791
165.742
157.414
148.831
140.017
130.998
121.801
112.452
102.982
93.417
83.787
74.122
64.45
54.8
45.201
35.681
26.267
16.985
7.861
-1.081
-9.818
-18.328
-26.592
-34.59
-42.306
-49.724
-56.832
-63.616
-70.066
-76.176
-81.937
-87.345
-92.398
-97.094
-101.433
-105.42
-109.056
-112.348
-115.303
-117.929
-120.237
-122.236
-123.939
-125.36
-126.511
-127.408
-128.066
-128.501
-128.728
-128.765
-128.628
-128.333
-127.896
-127.336
-126.666
-125.903
-125.063
-124.16
-123.209
-122.223
-121.215
-120.198
-119.183
-118.181
-117.203
-116.256
-115.35
-114.492
-113.688
-112.944
-112.266
-111.657
-111.12
-110.658
-110.272
-109.964
-109.733
-109.579
-109.501
-109.497
-109.566
-109.705
-109.911
-110.181
-110.51
-110.896
-111.334
-111.821
-112.351
-112.921
-113.526
-114.162
-114.823
-115.507
-116.209
-116.924
-117.648
-118.378
-119.11
-119.84
-120.566
-121.283
-121.989
-122.682
-123.359
-124.018
-124.656
-125.273
-125.867
-126.437
-126.982
